Potential applied (V);Time (s);WE(1).Current (A);WE(1).Potential (V);Index;Current range;Overload
-1.24893188476563;53.6418998645672;-0.03253173828125;-1.25;1;10 mA;
-1.24786376953125;53.8555228640279;-0.0349456787109375;-1.2493896484375;2;10 mA;
-1.24679565429688;54.0691458634885;-0.0357177734375;-1.24755859375;3;10 mA;
-1.2457275390625;54.2827688629492;-0.0357635498046875;-1.24664306640625;4;10 mA;
-1.24465942382813;54.4963918624098;-0.0353912353515625;-1.24542236328125;5;10 mA;
-1.24359130859375;54.7100148618705;-0.03468017578125;-1.24481201171875;6;10 mA;
-1.24252319335938;54.9236378613311;-0.0337615966796875;-1.2451171875;7;10 mA;
-1.241455078125;55.1372608607918;-0.0327423095703125;-1.24298095703125;8;10 mA;
-1.24038696289063;55.3508838602525;-0.0316009521484375;-1.24114990234375;9;10 mA;
-1.23931884765625;55.5645068597131;-0.030279541015625;-1.23931884765625;10;10 mA;
-1.23825073242188;55.7781298591738;-0.0287506103515625;-1.23870849609375;11;10 mA;
-1.2371826171875;55.9917528586344;-0.026995849609375;-1.23687744140625;12;10 mA;
-1.23611450195313;56.2053758580951;-0.0250396728515625;-1.23687744140625;13;10 mA;
-1.23504638671875;56.4189988575557;-0.0230224609375;-1.23565673828125;14;10 mA;
-1.23397827148438;56.6326218570164;-0.021044921875;-1.23443603515625;15;10 mA;
-1.23291015625;56.846244856477;-0.0191192626953125;-1.2335205078125;16;10 mA;
-1.23184204101563;57.0598678559377;-0.01722412109375;-1.23260498046875;17;10 mA;
-1.23077392578125;57.2734908553983;-0.015423583984375;-1.23016357421875;18;10 mA;
-1.22970581054688;57.487113854859;-0.01380615234375;-1.23046875;19;10 mA;
-1.2286376953125;57.7007368543196;-0.0124267578125;-1.2286376953125;20;10 mA;
-1.22756958007813;57.9143598537803;-0.0112884521484375;-1.22833251953125;21;10 mA;
-1.22650146484375;58.127982853241;-0.0103302001953125;-1.22711181640625;22;10 mA;
-1.22543334960938;58.3416058527016;-0.0095123291015625;-1.226806640625;23;10 mA;
-1.224365234375;58.5552288521623;-0.00880126953125;-1.2255859375;24;10 mA;
-1.22329711914063;58.7688518516229;-0.0081756591796875;-1.2237548828125;25;10 mA;
-1.22222900390625;58.9824748510836;-0.007623291015625;-1.22406005859375;26;10 mA;
-1.22116088867188;59.1960978505442;-0.00712890625;-1.22344970703125;27;10 mA;
-1.2200927734375;59.4097208500049;-0.006683349609375;-1.22039794921875;28;10 mA;
-1.21902465820313;59.6233438494655;-0.0062774658203125;-1.21917724609375;29;10 mA;
-1.21795654296875;59.8369668489262;-0.0059173583984375;-1.21795654296875;30;10 mA;
-1.21688842773438;60.0505898483868;-0.0055816650390625;-1.2176513671875;31;10 mA;
-1.2158203125;60.2642128478475;-0.005279541015625;-1.217041015625;32;10 mA;
-1.21475219726563;60.4778358473081;-0.0050018310546875;-1.21551513671875;33;10 mA;
-1.21368408203125;60.6914588467688;-0.00475311279296875;-1.2139892578125;34;10 mA;
-1.21261596679688;60.9050818462295;-0.00451568603515625;-1.21429443359375;35;10 mA;
-1.2115478515625;61.1187048456901;-0.0042987060546875;-1.21246337890625;36;10 mA;
-1.21047973632813;61.3323278451508;-0.004095458984375;-1.21124267578125;37;10 mA;
-1.20941162109375;61.5459508446114;-0.0039068603515625;-1.20941162109375;38;10 mA;
-1.20834350585938;61.7595738440721;-0.00373291015625;-1.20880126953125;39;10 mA;
-1.207275390625;61.9731968435327;-0.00356964111328125;-1.207275390625;40;10 mA;
-1.20620727539063;62.1868198429934;-0.003416748046875;-1.20697021484375;41;10 mA;
-1.20513916015625;62.400442842454;-0.003275146484375;-1.20513916015625;42;10 mA;
-1.20407104492188;62.6140658419147;-0.00314178466796875;-1.204833984375;43;10 mA;
-1.2030029296875;62.8276888413753;-0.0030157470703125;-1.20330810546875;44;10 mA;
-1.20193481445313;63.041311840836;-0.00289886474609375;-1.2030029296875;45;10 mA;
-1.20086669921875;63.2549348402966;-0.00278778076171875;-1.2017822265625;46;10 mA;
-1.19979858398438;63.4685578397573;-0.00268218994140625;-1.19964599609375;47;10 mA;
-1.19873046875;63.6821808392179;-0.00258514404296875;-1.19903564453125;48;10 mA;
-1.19766235351563;63.8958038386786;-0.002490234375;-1.19659423828125;49;10 mA;
-1.19659423828125;64.1094268381393;-0.0024005126953125;-1.19781494140625;50;10 mA;
-1.19552612304688;64.3230498375999;-0.002318115234375;-1.19720458984375;51;10 mA;
-1.1944580078125;64.5366728370606;-0.00224151611328125;-1.19384765625;52;10 mA;
-1.19338989257813;64.7502958365212;-0.00216705322265625;-1.19384765625;53;10 mA;
-1.19232177734375;64.9639188359819;-0.0020977783203125;-1.19232177734375;54;10 mA;
-1.19125366210938;65.1775418354425;-0.002032470703125;-1.1932373046875;55;10 mA;
-1.190185546875;65.3911648349032;-0.00196929931640625;-1.19140625;56;10 mA;
-1.18911743164063;65.6047878343638;-0.00190765380859375;-1.18988037109375;57;10 mA;
-1.18804931640625;65.8184108338245;-0.0018499755859375;-1.18865966796875;58;10 mA;
-1.18698120117188;66.0320338332851;-0.001793212890625;-1.18743896484375;59;10 mA;
-1.1859130859375;66.2456568327458;-0.0017401123046875;-1.1859130859375;60;10 mA;
-1.18484497070313;66.4592798322064;-0.0016900634765625;-1.18499755859375;61;10 mA;
-1.18377685546875;66.6729028316671;-0.00164093017578125;-1.18408203125;62;10 mA;
-1.18270874023438;66.8865258311278;-0.00159271240234375;-1.18377685546875;63;10 mA;
-1.181640625;67.1001488305884;-0.0015496826171875;-1.18255615234375;64;10 mA;
-1.18057250976563;67.3137718300491;-0.00150482177734375;-1.18072509765625;65;10 mA;
-1.17950439453125;67.5273948295097;-0.00146270751953125;-1.17919921875;66;10 mA;
-1.17843627929688;67.7410178289704;-0.001424560546875;-1.17889404296875;67;10 mA;
-1.1773681640625;67.954640828431;-0.001387939453125;-1.17828369140625;68;10 mA;
-1.17630004882813;68.1682638278917;-0.00135162353515625;-1.17767333984375;69;10 mA;
-1.17523193359375;68.3818868273523;-0.001318359375;-1.17584228515625;70;10 mA;
-1.17416381835938;68.595509826813;-0.00128509521484375;-1.17462158203125;71;10 mA;
-1.173095703125;68.8091328262736;-0.0012518310546875;-1.17340087890625;72;10 mA;
-1.17202758789063;69.0227558257343;-0.00122100830078125;-1.1724853515625;73;10 mA;
-1.17095947265625;69.2363788251949;-0.00119049072265625;-1.1724853515625;74;10 mA;
-1.16989135742188;69.4500018246556;-0.00115966796875;-1.17034912109375;75;10 mA;
-1.1688232421875;69.6636248241163;-0.00113189697265625;-1.16973876953125;76;10 mA;
-1.16775512695313;69.8772478235769;-0.0011053466796875;-1.16912841796875;77;10 mA;
-1.16668701171875;70.0908708230376;-0.00107879638671875;-1.16912841796875;78;10 mA;
-1.16561889648438;70.3044938224982;-0.00105438232421875;-1.16668701171875;79;10 mA;
-1.16455078125;70.5181168219589;-0.00103240966796875;-1.16455078125;80;10 mA;
-1.16348266601563;70.7317398214195;-0.00100738525390625;-1.16485595703125;81;10 mA;
-1.16241455078125;70.9453628208802;-0.0009857177734375;-1.1639404296875;82;10 mA;
-1.16134643554688;71.1589858203408;-0.00096435546875;-1.16180419921875;83;10 mA;
-1.1602783203125;71.3726088198015;-0.0009429931640625;-1.16058349609375;84;10 mA;
-1.15921020507813;71.5862318192621;-0.00092315673828125;-1.15936279296875;85;10 mA;
-1.15814208984375;71.7998548187228;-0.0009051513671875;-1.158447265625;86;10 mA;
-1.15707397460938;72.0134778181834;-0.0008837890625;-1.15875244140625;87;1 mA;
-1.156005859375;72.2271008176441;-0.0008642578125;-1.15631103515625;88;1 mA;
-1.15493774414063;72.4407238171048;-0.00084808349609375;-1.15509033203125;89;1 mA;
-1.15386962890625;72.6543468165654;-0.000830078125;-1.15447998046875;90;1 mA;
-1.15280151367188;72.8679698160261;-0.000811767578125;-1.15234375;91;1 mA;
-1.1517333984375;73.0815928154867;-0.00079681396484375;-1.15142822265625;92;1 mA;
-1.15066528320313;73.2952158149474;-0.00077972412109375;-1.15234375;93;1 mA;
-1.14959716796875;73.508838814408;-0.00076324462890625;-1.15081787109375;94;1 mA;
-1.14852905273438;73.7224618138687;-0.00074920654296875;-1.14898681640625;95;1 mA;
-1.1474609375;73.9360848133293;-0.0007354736328125;-1.14837646484375;96;1 mA;
-1.14639282226563;74.14970781279;-0.0007196044921875;-1.14715576171875;97;1 mA;
-1.14532470703125;74.3633308122506;-0.0007073974609375;-1.14532470703125;98;1 mA;
-1.14425659179688;74.5769538117113;-0.00069427490234375;-1.1444091796875;99;1 mA;
-1.1431884765625;74.7905768111719;-0.00068023681640625;-1.14410400390625;100;1 mA;
-1.14212036132813;75.0041998106326;-0.0006683349609375;-1.142578125;101;1 mA;
-1.14105224609375;75.2178228100933;-0.00065704345703125;-1.14166259765625;102;1 mA;
-1.13998413085938;75.4314458095539;-0.000643310546875;-1.1407470703125;103;1 mA;
-1.138916015625;75.6450688090146;-0.00063262939453125;-1.13983154296875;104;1 mA;
-1.13784790039063;75.8586918084752;-0.00062225341796875;-1.13861083984375;105;1 mA;
-1.13677978515625;76.0723148079359;-0.000609130859375;-1.1376953125;106;1 mA;
-1.13571166992188;76.2859378073965;-0.00059844970703125;-1.1358642578125;107;1 mA;
-1.1346435546875;76.4995608068572;-0.000589599609375;-1.13525390625;108;1 mA;
-1.13357543945313;76.7131838063178;-0.0005780029296875;-1.13433837890625;109;1 mA;
-1.13250732421875;76.9268068057785;-0.0005682373046875;-1.1328125;110;1 mA;
-1.13143920898438;77.1404298052391;-0.00055908203125;-1.13189697265625;111;1 mA;
-1.13037109375;77.3540528046998;-0.00054901123046875;-1.13067626953125;112;1 mA;
-1.12930297851563;77.5676758041604;-0.00054046630859375;-1.1297607421875;113;1 mA;
-1.12823486328125;77.7812988036211;-0.0005328369140625;-1.13006591796875;114;1 mA;
-1.12716674804688;77.9949218030818;-0.0005230712890625;-1.12762451171875;115;1 mA;
-1.1260986328125;78.2085448025424;-0.00051361083984375;-1.12640380859375;116;1 mA;
-1.12503051757813;78.4221678020031;-0.00050750732421875;-1.12518310546875;117;1 mA;
-1.12396240234375;78.6357908014637;-0.0004986572265625;-1.12579345703125;118;1 mA;
-1.12289428710938;78.8494138009244;-0.000489501953125;-1.123046875;119;1 mA;
-1.121826171875;79.063036800385;-0.00048370361328125;-1.12274169921875;120;1 mA;
-1.12075805664063;79.2766597998457;-0.0004754638671875;-1.12030029296875;121;1 mA;
-1.11968994140625;79.4902827993063;-0.00046722412109375;-1.1212158203125;122;1 mA;
-1.11862182617188;79.703905798767;-0.00046173095703125;-1.11968994140625;123;1 mA;
-1.1175537109375;79.9175287982276;-0.0004547119140625;-1.1181640625;124;1 mA;
-1.11648559570313;80.1311517976883;-0.00044677734375;-1.1163330078125;125;1 mA;
-1.11541748046875;80.3447747971489;-0.00044158935546875;-1.11602783203125;126;1 mA;
-1.11434936523438;80.5583977966096;-0.00043487548828125;-1.11541748046875;127;1 mA;
-1.11328125;80.7720207960703;-0.00042816162109375;-1.1138916015625;128;1 mA;
-1.11221313476563;80.9856437955309;-0.000422210693359375;-1.11175537109375;129;1 mA;
-1.11114501953125;81.1992667949916;-0.000416656494140625;-1.10992431640625;130;1 mA;
-1.11007690429688;81.4128897944522;-0.000409393310546875;-1.11053466796875;131;1 mA;
-1.1090087890625;81.6265127939129;-0.000404449462890625;-1.1090087890625;132;1 mA;
-1.10794067382813;81.8401357933735;-0.000399322509765625;-1.10931396484375;133;1 mA;
-1.10687255859375;82.0537587928342;-0.000392364501953125;-1.1077880859375;134;1 mA;
-1.10580444335938;82.2673817922948;-0.000386932373046875;-1.10626220703125;135;1 mA;
-1.104736328125;82.4810047917555;-0.0003826904296875;-1.10443115234375;136;1 mA;
-1.10366821289063;82.6946277912161;-0.0003759765625;-1.1041259765625;137;1 mA;
-1.10260009765625;82.9082507906768;-0.000370452880859375;-1.10382080078125;138;1 mA;
-1.10153198242188;83.1218737901374;-0.000365997314453125;-1.10260009765625;139;1 mA;
-1.1004638671875;83.3354967895981;-0.00035992431640625;-1.10107421875;140;1 mA;
-1.09939575195313;83.5491197890588;-0.0003546142578125;-1.10076904296875;141;1 mA;
-1.09832763671875;83.7627427885194;-0.000350799560546875;-1.1004638671875;142;1 mA;
-1.09725952148438;83.9763657879801;-0.000345001220703125;-1.09832763671875;143;1 mA;
-1.09619140625;84.1899887874407;-0.000340087890625;-1.09649658203125;144;1 mA;
-1.09512329101563;84.4036117869014;-0.000336029052734375;-1.09588623046875;145;1 mA;
-1.09405517578125;84.617234786362;-0.0003310546875;-1.09405517578125;146;1 mA;
-1.09298706054688;84.8308577858227;-0.00032537841796875;-1.0931396484375;147;1 mA;
-1.0919189453125;85.0444807852833;-0.000321990966796875;-1.0931396484375;148;1 mA;
-1.09085083007813;85.258103784744;-0.0003170166015625;-1.09283447265625;149;1 mA;
-1.08978271484375;85.4717267842046;-0.00031170654296875;-1.09039306640625;150;1 mA;
-1.08871459960938;85.6853497836653;-0.000308563232421875;-1.0906982421875;151;1 mA;
-1.087646484375;85.8989727831259;-0.000304168701171875;-1.0882568359375;152;1 mA;
-1.08657836914063;86.1125957825866;-0.000298736572265625;-1.08734130859375;153;1 mA;
-1.08551025390625;86.3262187820472;-0.000295562744140625;-1.08551025390625;154;1 mA;
-1.08444213867188;86.5398417815079;-0.00029156494140625;-1.0845947265625;155;1 mA;
-1.0833740234375;86.7534647809686;-0.000286590576171875;-1.08367919921875;156;1 mA;
-1.08230590820313;86.9670877804292;-0.000283050537109375;-1.08245849609375;157;1 mA;
-1.08123779296875;87.1807107798899;-0.0002799072265625;-1.0821533203125;158;1 mA;
-1.08016967773438;87.3943337793505;-0.000274688720703125;-1.08062744140625;159;1 mA;
-1.0791015625;87.6079567788112;-0.000271697998046875;-1.0791015625;160;1 mA;
-1.07803344726563;87.8215797782718;-0.0002685546875;-1.07940673828125;161;1 mA;
-1.07696533203125;88.0352027777325;-0.000263671875;-1.07757568359375;162;1 mA;
-1.07589721679688;88.2488257771931;-0.000260345458984375;-1.07757568359375;163;1 mA;
-1.0748291015625;88.4624487766538;-0.00025811767578125;-1.07513427734375;164;1 mA;
-1.07376098632813;88.6760717761144;-0.0002532958984375;-1.07452392578125;165;1 mA;
-1.07269287109375;88.8896947755751;-0.00025;-1.07391357421875;166;1 mA;
-1.07162475585938;89.1033177750357;-0.000247467041015625;-1.07177734375;167;1 mA;
-1.070556640625;89.3169407744964;-0.000243316650390625;-1.0699462890625;168;1 mA;
-1.06948852539063;89.5305637739571;-0.000239898681640625;-1.06964111328125;169;1 mA;
-1.06842041015625;89.7441867734177;-0.00023760986328125;-1.06842041015625;170;1 mA;
-1.06735229492188;89.9578097728784;-0.000233551025390625;-1.06719970703125;171;1 mA;
-1.0662841796875;90.171432772339;-0.000230133056640625;-1.06781005859375;172;1 mA;
-1.06521606445313;90.3850557717997;-0.00022796630859375;-1.06597900390625;173;1 mA;
-1.06414794921875;90.5986787712603;-0.00022467041015625;-1.06475830078125;174;1 mA;
-1.06307983398438;90.812301770721;-0.000220977783203125;-1.0638427734375;175;1 mA;
-1.06201171875;91.0259247701816;-0.000219757080078125;-1.06414794921875;176;1 mA;
-1.06094360351563;91.2395477696423;-0.00021624755859375;-1.06109619140625;177;1 mA;
-1.05987548828125;91.4531707691029;-0.00021319580078125;-1.0601806640625;178;1 mA;
-1.05880737304688;91.6667937685636;-0.000211578369140625;-1.05926513671875;179;1 mA;
-1.0577392578125;91.8804167680242;-0.000209564208984375;-1.05865478515625;180;1 mA;
-1.05667114257813;92.0940397674849;-0.000206085205078125;-1.05804443359375;181;1 mA;
-1.05560302734375;92.3076627669456;-0.0002049560546875;-1.055908203125;182;1 mA;
-1.05453491210938;92.5212857664062;-0.000202667236328125;-1.05712890625;183;1 mA;
-1.053466796875;92.7349087658669;-0.000198822021484375;-1.0546875;184;1 mA;
-1.05239868164063;92.9485317653275;-0.000197113037109375;-1.05224609375;185;1 mA;
-1.05133056640625;93.1621547647882;-0.00019525146484375;-1.05316162109375;186;1 mA;
-1.05026245117188;93.3757777642488;-0.000191497802734375;-1.05072021484375;187;1 mA;
-1.0491943359375;93.5894007637095;-0.0001898193359375;-1.04949951171875;188;1 mA;
-1.04812622070313;93.8030237631701;-0.00018804931640625;-1.04888916015625;189;1 mA;
-1.04705810546875;94.0166467626308;-0.00018438720703125;-1.04827880859375;190;1 mA;
-1.04598999023438;94.2302697620914;-0.000182373046875;-1.0479736328125;191;1 mA;
-1.044921875;94.4438927615521;-0.0001812744140625;-1.04583740234375;192;1 mA;
-1.04385375976563;94.6575157610127;-0.0001776123046875;-1.04522705078125;193;1 mA;
-1.04278564453125;94.8711387604734;-0.000175567626953125;-1.04156494140625;194;1 mA;
-1.04171752929688;95.0847617599341;-0.00017401123046875;-1.04217529296875;195;1 mA;
-1.0406494140625;95.2983847593947;-0.000171112060546875;-1.0418701171875;196;1 mA;
-1.03958129882813;95.5120077588554;-0.000168548583984375;-1.0400390625;197;1 mA;
-1.03851318359375;95.725630758316;-0.00016748046875;-1.038818359375;198;1 mA;
-1.03744506835938;95.9392537577767;-0.0001646728515625;-1.03729248046875;199;1 mA;
-1.036376953125;96.1528767572373;-0.000161956787109375;-1.03607177734375;200;1 mA;
-1.03530883789063;96.366499756698;-0.00016107177734375;-1.03607177734375;201;1 mA;
-1.03424072265625;96.5801227561586;-0.000158203125;-1.03363037109375;202;1 mA;
-1.03317260742188;96.7937457556193;-0.000155181884765625;-1.03271484375;203;1 mA;
-1.0321044921875;97.0073687550799;-0.000154388427734375;-1.03302001953125;204;1 mA;
-1.03103637695313;97.2209917545406;-0.000152008056640625;-1.031494140625;205;1 mA;
-1.02996826171875;97.4346147540012;-0.00014923095703125;-1.03118896484375;206;1 mA;
-1.02890014648438;97.6482377534619;-0.000148284912109375;-1.029052734375;207;1 mA;
-1.02783203125;97.8618607529226;-0.0001463623046875;-1.02813720703125;208;1 mA;
-1.02676391601563;98.0754837523832;-0.000143157958984375;-1.02630615234375;209;1 mA;
-1.02569580078125;98.2891067518439;-0.000142425537109375;-1.02508544921875;210;1 mA;
-1.02462768554688;98.5027297513045;-0.00014044189453125;-1.02447509765625;211;1 mA;
-1.0235595703125;98.7163527507652;-0.000137451171875;-1.024169921875;212;1 mA;
-1.02249145507813;98.9299757502258;-0.000136505126953125;-1.02386474609375;213;1 mA;
-1.02142333984375;99.1435987496865;-0.00013555908203125;-1.02203369140625;214;1 mA;
-1.02035522460938;99.3572217491471;-0.000132659912109375;-1.01898193359375;215;1 mA;
-1.019287109375;99.5708447486078;-0.0001314697265625;-1.0198974609375;216;1 mA;
-1.01821899414063;99.7844677480684;-0.00013055419921875;-1.01806640625;217;1 mA;
-1.01715087890625;99.9980907475291;-0.0001278076171875;-1.016845703125;218;1 mA;
-1.01608276367188;100.21171374699;-0.00012640380859375;-1.016845703125;219;1 mA;
-1.0150146484375;100.42533674645;-0.000125885009765625;-1.01593017578125;220;1 mA;
-1.01394653320313;100.638959745911;-0.00012310791015625;-1.01348876953125;221;1 mA;
-1.01287841796875;100.852582745372;-0.000121368408203125;-1.01531982421875;222;1 mA;
-1.01181030273438;101.066205744832;-0.000121063232421875;-1.011962890625;223;1 mA;
-1.0107421875;101.279828744293;-0.000119049072265625;-1.01165771484375;224;1 mA;
-1.00967407226563;101.493451743754;-0.000116729736328125;-1.0101318359375;225;1 mA;
-1.00860595703125;101.707074743214;-0.000116729736328125;-1.00982666015625;226;1 mA;
-1.00753784179688;101.920697742675;-0.000114715576171875;-1.00921630859375;227;1 mA;
-1.0064697265625;102.134320742136;-0.000112457275390625;-1.00677490234375;228;1 mA;
-1.00540161132813;102.347943741596;-0.000112152099609375;-1.007080078125;229;1 mA;
-1.00433349609375;102.561566741057;-0.00011053466796875;-1.00555419921875;230;1 mA;
-1.00326538085938;102.775189740518;-0.00010858154296875;-1.0040283203125;231;1 mA;
-1.002197265625;102.988812739978;-0.000109100341796875;-1.00311279296875;232;1 mA;
-1.00112915039063;103.202435739439;-0.000106719970703125;-1.002197265625;233;1 mA;
-1.00006103515625;103.4160587389;-0.00010455322265625;-1.00128173828125;234;1 mA;
-0.998992919921875;103.62968173836;-0.000104095458984375;-0.999755859375;235;1 mA;
-0.9979248046875;103.843304737821;-0.000103179931640625;-0.99853515625;236;1 mA;
-0.996856689453125;104.056927737282;-0.0001004638671875;-0.99700927734375;237;1 mA;
-0.99578857421875;104.270550736742;-0.000100128173828125;-0.994873046875;238;1 mA;
-0.994720458984375;104.484173736203;-9.8480224609375E-05;-0.99578857421875;239;1 mA;
-0.99365234375;104.697796735663;-9.6832275390625E-05;-0.9942626953125;240;1 mA;
-0.992584228515625;104.911419735124;-9.5489501953125E-05;-0.9942626953125;241;1 mA;
-0.99151611328125;105.125042734585;-9.50927734375E-05;-0.992431640625;242;1 mA;
-0.990447998046875;105.338665734045;-9.2803955078125E-05;-0.9912109375;243;1 mA;
-0.9893798828125;105.552288733506;-9.1949462890625E-05;-0.98968505859375;244;100 µA;
-0.988311767578125;105.765911732967;-9.185791015625E-05;-0.98876953125;245;100 µA;
-0.98724365234375;105.979534732427;-8.941650390625E-05;-0.98846435546875;246;100 µA;
-0.986175537109375;106.193157731888;-8.7615966796875E-05;-0.98724365234375;247;100 µA;
-0.985107421875;106.406780731349;-8.7860107421875E-05;-0.98602294921875;248;100 µA;
-0.984039306640625;106.620403730809;-8.5968017578125E-05;-0.98480224609375;249;100 µA;
-0.98297119140625;106.83402673027;-8.38623046875E-05;-0.98388671875;250;100 µA;
-0.981903076171875;107.047649729731;-8.3892822265625E-05;-0.98175048828125;251;100 µA;
-0.9808349609375;107.261272729191;-8.3160400390625E-05;-0.9832763671875;252;100 µA;
-0.979766845703125;107.474895728652;-8.04443359375E-05;-0.980224609375;253;100 µA;
-0.97869873046875;107.688518728113;-8.087158203125E-05;-0.9783935546875;254;100 µA;
-0.977630615234375;107.902141727573;-8.0078125E-05;-0.97869873046875;255;100 µA;
-0.9765625;108.115764727034;-7.806396484375E-05;-0.97808837890625;256;100 µA;
-0.975494384765625;108.329387726495;-7.75146484375E-05;-0.97503662109375;257;100 µA;
-0.97442626953125;108.543010725955;-7.6507568359375E-05;-0.97503662109375;258;100 µA;
-0.973358154296875;108.756633725416;-7.379150390625E-05;-0.97412109375;259;100 µA;
-0.9722900390625;108.970256724877;-7.379150390625E-05;-0.97381591796875;260;100 µA;
-0.971221923828125;109.183879724337;-7.3150634765625E-05;-0.972900390625;261;100 µA;
-0.97015380859375;109.397502723798;-7.049560546875E-05;-0.9698486328125;262;100 µA;
-0.969085693359375;109.611125723259;-6.988525390625E-05;-0.970458984375;263;100 µA;
-0.968017578125;109.824748722719;-6.99462890625E-05;-0.96832275390625;264;100 µA;
-0.966949462890625;110.03837172218;-6.7413330078125E-05;-0.96832275390625;265;100 µA;
-0.96588134765625;110.25199472164;-6.6253662109375E-05;-0.9661865234375;266;100 µA;
-0.964813232421875;110.465617721101;-6.6162109375E-05;-0.96527099609375;267;100 µA;
-0.9637451171875;110.679240720562;-6.4117431640625E-05;-0.96343994140625;268;100 µA;
-0.962677001953125;110.892863720022;-6.243896484375E-05;-0.963134765625;269;100 µA;
-0.96160888671875;111.106486719483;-6.2835693359375E-05;-0.96221923828125;270;100 µA;
-0.960540771484375;111.320109718944;-6.085205078125E-05;-0.9600830078125;271;100 µA;
-0.95947265625;111.533732718404;-5.8990478515625E-05;-0.960693359375;272;100 µA;
-0.958404541015625;111.747355717865;-5.926513671875E-05;-0.95947265625;273;100 µA;
-0.95733642578125;111.960978717326;-5.792236328125E-05;-0.9588623046875;274;100 µA;
-0.956268310546875;112.174601716786;-5.523681640625E-05;-0.95733642578125;275;100 µA;
-0.9552001953125;112.388224716247;-5.5694580078125E-05;-0.95611572265625;276;100 µA;
-0.954132080078125;112.601847715708;-5.43212890625E-05;-0.95428466796875;277;100 µA;
-0.95306396484375;112.815470715168;-5.2154541015625E-05;-0.9539794921875;278;100 µA;
-0.951995849609375;113.029093714629;-5.2215576171875E-05;-0.9527587890625;279;100 µA;
-0.950927734375;113.24271671409;-5.1513671875E-05;-0.95123291015625;280;100 µA;
-0.949859619140625;113.45633971355;-4.8980712890625E-05;-0.9503173828125;281;100 µA;
-0.94879150390625;113.669962713011;-4.8980712890625E-05;-0.9490966796875;282;100 µA;
-0.947723388671875;113.883585712472;-4.8553466796875E-05;-0.94818115234375;283;100 µA;
-0.9466552734375;114.097208711932;-4.5989990234375E-05;-0.9466552734375;284;100 µA;
-0.945587158203125;114.310831711393;-4.534912109375E-05;-0.94635009765625;285;100 µA;
-0.94451904296875;114.524454710854;-4.534912109375E-05;-0.9454345703125;286;100 µA;
-0.943450927734375;114.738077710314;-4.2877197265625E-05;-0.9442138671875;287;100 µA;
-0.9423828125;114.951700709775;-4.254150390625E-05;-0.94329833984375;288;100 µA;
-0.941314697265625;115.165323709236;-4.19921875E-05;-0.9417724609375;289;100 µA;
-0.94024658203125;115.378946708696;-4.00390625E-05;-0.941162109375;290;100 µA;
-0.939178466796875;115.592569708157;-3.8787841796875E-05;-0.93994140625;291;100 µA;
-0.9381103515625;115.806192707617;-3.9276123046875E-05;-0.938720703125;292;100 µA;
-0.937042236328125;116.019815707078;-3.74755859375E-05;-0.93719482421875;293;100 µA;
-0.93597412109375;116.233438706539;-3.5614013671875E-05;-0.93597412109375;294;100 µA;
-0.934906005859375;116.447061705999;-3.5888671875E-05;-0.93505859375;295;100 µA;
-0.933837890625;116.66068470546;-3.472900390625E-05;-0.93475341796875;296;100 µA;
-0.932769775390625;116.874307704921;-3.2318115234375E-05;-0.93353271484375;297;100 µA;
-0.93170166015625;117.087930704381;-3.2745361328125E-05;-0.93231201171875;298;100 µA;
-0.930633544921875;117.301553703842;-3.1524658203125E-05;-0.9320068359375;299;100 µA;
-0.9295654296875;117.515176703303;-2.9571533203125E-05;-0.92987060546875;300;100 µA;
-0.928497314453125;117.728799702763;-2.947998046875E-05;-0.9295654296875;301;100 µA;
-0.92742919921875;117.942422702224;-2.8717041015625E-05;-0.927734375;302;100 µA;
-0.926361083984375;118.156045701685;-2.6336669921875E-05;-0.9271240234375;303;100 µA;
-0.92529296875;118.369668701145;-2.6702880859375E-05;-0.926513671875;304;100 µA;
-0.924224853515625;118.583291700606;-2.5909423828125E-05;-0.92620849609375;305;100 µA;
-0.92315673828125;118.796914700067;-2.3651123046875E-05;-0.92437744140625;306;100 µA;
-0.922088623046875;119.010537699527;-2.3223876953125E-05;-0.92193603515625;307;100 µA;
-0.9210205078125;119.224160698988;-2.33154296875E-05;-0.92193603515625;308;100 µA;
-0.919952392578125;119.437783698449;-2.0843505859375E-05;-0.92071533203125;309;100 µA;
-0.91888427734375;119.651406697909;-2.069091796875E-05;-0.92071533203125;310;100 µA;
-0.917816162109375;119.86502969737;-2.03857421875E-05;-0.91827392578125;311;100 µA;
-0.916748046875;120.078652696831;-1.8646240234375E-05;-0.9173583984375;312;100 µA;
-0.915679931640625;120.292275696291;-1.7547607421875E-05;-0.9161376953125;313;100 µA;
-0.91461181640625;120.505898695752;-1.7608642578125E-05;-0.91522216796875;314;100 µA;
-0.913543701171875;120.719521695213;-1.5960693359375E-05;-0.91552734375;315;100 µA;
-0.9124755859375;120.933144694673;-1.4862060546875E-05;-0.9130859375;316;100 µA;
-0.911407470703125;121.146767694134;-1.55029296875E-05;-0.91278076171875;317;100 µA;
-0.91033935546875;121.360390693594;-1.42822265625E-05;-0.91156005859375;318;100 µA;
-0.909271240234375;121.574013693055;-1.2451171875E-05;-0.91064453125;319;100 µA;
-0.908203125;121.787636692516;-1.3092041015625E-05;-0.9088134765625;320;100 µA;
-0.907135009765625;122.001259691976;-1.1810302734375E-05;-0.90789794921875;321;100 µA;
-0.90606689453125;122.214882691437;-1.0589599609375E-05;-0.90667724609375;322;100 µA;
-0.904998779296875;122.428505690898;-1.0955810546875E-05;-0.90576171875;323;100 µA;
-0.9039306640625;122.642128690358;-1.0345458984375E-05;-0.90545654296875;324;100 µA;
-0.902862548828125;122.855751689819;-7.8125E-06;-0.9039306640625;325;100 µA;
-0.90179443359375;123.06937468928;-8.85009765625E-06;-0.902099609375;326;100 µA;
-0.900726318359375;123.28299768874;-8.209228515625E-06;-0.90118408203125;327;100 µA;
-0.899658203125;123.496620688201;-6.683349609375E-06;-0.89996337890625;328;100 µA;
-0.898590087890625;123.710243687662;-6.439208984375E-06;-0.89996337890625;329;100 µA;
-0.89752197265625;123.923866687122;-5.9295654296875E-06;-0.8984375;330;10 µA;
-0.896453857421875;124.137489686583;-3.289794921875E-06;-0.89752197265625;331;10 µA;
-0.8953857421875;124.351112686044;-3.4332275390625E-06;-0.89630126953125;332;10 µA;
-0.894317626953125;124.564735685504;-3.814697265625E-06;-0.8953857421875;333;10 µA;
-0.89324951171875;124.778358684965;-1.59912109375E-06;-0.894775390625;334;10 µA;
-0.892181396484375;124.991981684426;-1.141357421875E-06;-0.89202880859375;335;10 µA;
-0.89111328125;125.205604683886;-2.0751953125E-06;-0.89141845703125;336;10 µA;
-0.890045166015625;125.419227683347;3.0517578125E-07;-0.89080810546875;337;10 µA;
-0.88897705078125;125.632850682808;6.011962890625E-07;-0.889892578125;338;10 µA;
-0.887908935546875;125.846473682268;1.434326171875E-07;-0.8880615234375;339;10 µA;
-0.8868408203125;126.060096681729;1.7974853515625E-06;-0.887451171875;340;10 µA;
-0.885772705078125;126.27371968119;2.7008056640625E-06;-0.88592529296875;341;10 µA;
-0.88470458984375;126.48734268065;1.7486572265625E-06;-0.885009765625;342;10 µA;
-0.883636474609375;126.700965680111;3.1494140625E-06;-0.88409423828125;343;10 µA;
-0.882568359375;126.914588679571;4.35791015625E-06;-0.8837890625;344;10 µA;
-0.881500244140625;127.128211679032;3.3905029296875E-06;-0.88226318359375;345;10 µA;
-0.88043212890625;127.341834678493;4.296875E-06;-0.8807373046875;346;10 µA;
-0.879364013671875;127.555457677953;5.963134765625E-06;-0.88043212890625;347;10 µA;
-0.8782958984375;127.769080677414;4.925537109375E-06;-0.87890625;348;10 µA;
-0.877227783203125;127.982703676875;5.8837890625E-06;-0.87799072265625;349;10 µA;
-0.87615966796875;128.196326676335;7.3577880859375E-06;-0.875244140625;350;10 µA;
-0.875091552734375;128.409949675796;6.6558837890625E-06;-0.875244140625;351;10 µA;
-0.8740234375;128.623572675257;6.8206787109375E-06;-0.87493896484375;352;10 µA;
-0.872955322265625;128.837195674717;8.819580078125E-06;-0.8734130859375;353;10 µA;
-0.87188720703125;129.050818674178;8.0596923828125E-06;-0.87371826171875;354;10 µA;
-0.870819091796875;129.264441673639;7.9986572265625E-06;-0.87188720703125;355;10 µA;
-0.8697509765625;129.478064673099;9.6832275390625E-06;-0.8697509765625;356;10 µA;
-0.868682861328125;129.69168767256;9.6771240234375E-06;-0.86883544921875;357;10 µA;
-0.86761474609375;129.905310672021;9.002685546875E-06;-0.86883544921875;358;10 µA;
-0.866546630859375;130.118933671481;1.10595703125E-05;-0.867919921875;359;10 µA;
-0.865478515625;130.332556670942;1.08917236328125E-05;-0.86669921875;360;10 µA;
-0.864410400390625;130.546179670403;1.005859375E-05;-0.86456298828125;361;10 µA;
-0.86334228515625;130.759802669863;1.2054443359375E-05;-0.86456298828125;362;10 µA;
-0.862274169921875;130.973425669324;1.22528076171875E-05;-0.86395263671875;363;10 µA;
-0.8612060546875;131.187048668785;1.114501953125E-05;-0.863037109375;364;10 µA;
-0.860137939453125;131.400671668245;1.29669189453125E-05;-0.85906982421875;365;10 µA;
-0.85906982421875;131.614294667706;1.31317138671875E-05;-0.86090087890625;366;10 µA;
-0.858001708984375;131.827917667167;1.259765625E-05;-0.86029052734375;367;10 µA;
-0.85693359375;132.041540666627;1.36260986328125E-05;-0.85845947265625;368;10 µA;
-0.855865478515625;132.255163666088;1.49383544921875E-05;-0.85662841796875;369;10 µA;
-0.85479736328125;132.468786665548;1.3677978515625E-05;-0.85540771484375;370;10 µA;
-0.853729248046875;132.682409665009;1.4886474609375E-05;-0.85418701171875;371;10 µA;
-0.8526611328125;132.89603266447;1.60858154296875E-05;-0.8551025390625;372;10 µA;
-0.851593017578125;133.10965566393;1.5203857421875E-05;-0.85205078125;373;10 µA;
-0.85052490234375;133.323278663391;1.571044921875E-05;-0.85113525390625;374;10 µA;
-0.849456787109375;133.536901662852;1.73309326171875E-05;-0.84991455078125;375;10 µA;
-0.848388671875;133.750524662312;1.63421630859375E-05;-0.8489990234375;376;10 µA;
-0.847320556640625;133.964147661773;1.69189453125E-05;-0.84808349609375;377;10 µA;
-0.84625244140625;134.177770661234;1.85546875E-05;-0.84686279296875;378;10 µA;
-0.845184326171875;134.391393660694;1.7822265625E-05;-0.8465576171875;379;10 µA;
-0.8441162109375;134.605016660155;1.79473876953125E-05;-0.8447265625;380;10 µA;
-0.843048095703125;134.818639659616;1.98150634765625E-05;-0.84442138671875;381;10 µA;
-0.84197998046875;135.032262659076;1.92962646484375E-05;-0.84259033203125;382;10 µA;
-0.840911865234375;135.245885658537;1.91650390625E-05;-0.84136962890625;383;10 µA;
-0.83984375;135.459508657998;2.1063232421875E-05;-0.8404541015625;384;10 µA;
-0.838775634765625;135.673131657458;2.08099365234375E-05;-0.84014892578125;385;10 µA;
-0.83770751953125;135.886754656919;2.0257568359375E-05;-0.83831787109375;386;10 µA;
-0.836639404296875;136.10037765638;2.2430419921875E-05;-0.83770751953125;387;10 µA;
-0.8355712890625;136.31400065584;2.20550537109375E-05;-0.8355712890625;388;10 µA;
-0.834503173828125;136.527623655301;2.1636962890625E-05;-0.83526611328125;389;10 µA;
-0.83343505859375;136.741246654762;2.32940673828125E-05;-0.83587646484375;390;10 µA;
-0.832366943359375;136.954869654222;2.38739013671875E-05;-0.83282470703125;391;10 µA;
-0.831298828125;137.168492653683;2.2998046875E-05;-0.831298828125;392;10 µA;
-0.830230712890625;137.382115653144;2.46337890625E-05;-0.8294677734375;393;10 µA;
-0.82916259765625;137.595738652604;2.5445556640625E-05;-0.82916259765625;394;10 µA;
-0.828094482421875;137.809361652065;2.52288818359375E-05;-0.82855224609375;395;10 µA;
-0.8270263671875;138.022984651525;2.6513671875E-05;-0.82733154296875;396;10 µA;
-0.825958251953125;138.236607650986;2.77984619140625E-05;-0.82672119140625;397;10 µA;
-0.82489013671875;138.450230650447;2.6708984375E-05;-0.82611083984375;398;10 µA;
-0.823822021484375;138.663853649907;2.79632568359375E-05;-0.8245849609375;399;10 µA;
-0.82275390625;138.877476649368;2.93914794921875E-05;-0.82305908203125;400;10 µA;
-0.821685791015625;139.091099648829;2.84698486328125E-05;-0.821533203125;401;10 µA;
-0.82061767578125;139.304722648289;2.90618896484375E-05;-0.8197021484375;402;10 µA;
-0.819549560546875;139.51834564775;3.1201171875E-05;-0.8209228515625;403;10 µA;
-0.8184814453125;139.731968647211;3.0340576171875E-05;-0.819091796875;404;10 µA;
-0.817413330078125;139.945591646671;3.12896728515625E-05;-0.81817626953125;405;10 µA;
-0.81634521484375;140.159214646132;3.3056640625E-05;-0.81817626953125;406;10 µA;
-0.815277099609375;140.372837645593;3.26080322265625E-05;-0.8160400390625;407;10 µA;
-0.814208984375;140.586460645053;3.31634521484375E-05;-0.8148193359375;408;10 µA;
-0.813140869140625;140.800083644514;3.52020263671875E-05;-0.81390380859375;409;10 µA;
-0.81207275390625;141.013706643975;3.54736328125E-05;-0.81298828125;410;10 µA;
-0.811004638671875;141.227329643435;3.55377197265625E-05;-0.81146240234375;411;10 µA;
-0.8099365234375;141.440952642896;3.7054443359375E-05;-0.81024169921875;412;10 µA;
-0.808868408203125;141.654575642357;3.773193359375E-05;-0.80841064453125;413;10 µA;
-0.80780029296875;141.868198641817;3.73077392578125E-05;-0.80902099609375;414;10 µA;
-0.806732177734375;142.081821641278;3.94683837890625E-05;-0.80657958984375;415;10 µA;
-0.8056640625;142.295444640739;4.03778076171875E-05;-0.8062744140625;416;10 µA;
-0.804595947265625;142.509067640199;3.90625E-05;-0.80535888671875;417;100 µA;
-0.80352783203125;142.72269063966;4.0740966796875E-05;-0.8056640625;418;100 µA;
-0.802459716796875;142.936313639121;4.168701171875E-05;-0.80291748046875;419;100 µA;
-0.8013916015625;143.149936638581;4.132080078125E-05;-0.80169677734375;420;100 µA;
-0.800323486328125;143.363559638042;4.327392578125E-05;-0.80108642578125;421;100 µA;
-0.79925537109375;143.577182637502;4.4586181640625E-05;-0.79986572265625;422;100 µA;
-0.798187255859375;143.790805636963;4.4403076171875E-05;-0.7989501953125;423;100 µA;
-0.797119140625;144.004428636424;4.5654296875E-05;-0.797119140625;424;100 µA;
-0.796051025390625;144.218051635884;4.736328125E-05;-0.797119140625;425;100 µA;
-0.79498291015625;144.431674635345;4.7210693359375E-05;-0.79681396484375;426;100 µA;
-0.793914794921875;144.645297634806;4.84619140625E-05;-0.79498291015625;427;100 µA;
-0.7928466796875;144.858920634266;5.010986328125E-05;-0.79437255859375;428;100 µA;
-0.791778564453125;145.072543633727;5.0323486328125E-05;-0.792236328125;429;100 µA;
-0.79071044921875;145.286166633188;5.126953125E-05;-0.79254150390625;430;100 µA;
-0.789642333984375;145.499789632648;5.322265625E-05;-0.79132080078125;431;100 µA;
-0.78857421875;145.713412632109;5.31005859375E-05;-0.78948974609375;432;100 µA;
-0.787506103515625;145.92703563157;5.419921875E-05;-0.78765869140625;433;100 µA;
-0.78643798828125;146.14065863103;5.5999755859375E-05;-0.787353515625;434;100 µA;
-0.785369873046875;146.354281630491;5.670166015625E-05;-0.78582763671875;435;100 µA;
-0.7843017578125;146.567904629952;5.682373046875E-05;-0.78399658203125;436;100 µA;
-0.783233642578125;146.781527629412;5.9417724609375E-05;-0.78369140625;437;100 µA;
-0.78216552734375;146.995150628873;5.95703125E-05;-0.78216552734375;438;100 µA;
-0.781097412109375;147.208773628334;5.96923828125E-05;-0.782470703125;439;100 µA;
-0.780029296875;147.422396627794;6.1981201171875E-05;-0.78155517578125;440;100 µA;
-0.778961181640625;147.636019627255;6.3018798828125E-05;-0.77972412109375;441;100 µA;
-0.77789306640625;147.849642626716;6.3079833984375E-05;-0.7794189453125;442;100 µA;
-0.776824951171875;148.063265626176;6.5216064453125E-05;-0.7763671875;443;100 µA;
-0.7757568359375;148.276888625637;6.57958984375E-05;-0.7763671875;444;100 µA;
-0.774688720703125;148.490511625098;6.62841796875E-05;-0.775146484375;445;100 µA;
-0.77362060546875;148.704134624558;6.781005859375E-05;-0.77484130859375;446;100 µA;
-0.772552490234375;148.917757624019;6.9183349609375E-05;-0.7733154296875;447;100 µA;
-0.771484375;149.131380623479;6.8756103515625E-05;-0.77239990234375;448;100 µA;
-0.770416259765625;149.34500362294;7.0587158203125E-05;-0.77239990234375;449;100 µA;
-0.76934814453125;149.558626622401;7.2235107421875E-05;-0.770263671875;450;100 µA;
-0.768280029296875;149.772249621861;7.2296142578125E-05;-0.76904296875;451;100 µA;
-0.7672119140625;149.985872621322;7.3150634765625E-05;-0.76812744140625;452;100 µA;
-0.766143798828125;150.199495620783;7.5042724609375E-05;-0.7666015625;453;100 µA;
-0.76507568359375;150.413118620243;7.525634765625E-05;-0.7659912109375;454;100 µA;
-0.764007568359375;150.626741619704;7.6080322265625E-05;-0.76385498046875;455;100 µA;
-0.762939453125;150.840364619165;7.7606201171875E-05;-0.76324462890625;456;100 µA;
-0.761871337890625;151.053987618625;7.8094482421875E-05;-0.76263427734375;457;100 µA;
-0.76080322265625;151.267610618086;7.8704833984375E-05;-0.76202392578125;458;100 µA;
-0.759735107421875;151.481233617547;8.10546875E-05;-0.76080322265625;459;100 µA;
-0.7586669921875;151.694856617007;8.2427978515625E-05;-0.75927734375;460;100 µA;
-0.757598876953125;151.908479616468;8.2489013671875E-05;-0.7598876953125;461;100 µA;
-0.75653076171875;152.122102615929;8.4747314453125E-05;-0.758056640625;462;100 µA;
-0.755462646484375;152.335725615389;8.526611328125E-05;-0.7568359375;463;100 µA;
-0.75439453125;152.54934861485;8.4991455078125E-05;-0.75531005859375;464;100 µA;
-0.753326416015625;152.762971614311;8.7432861328125E-05;-0.753173828125;465;100 µA;
-0.75225830078125;152.976594613771;8.8226318359375E-05;-0.75286865234375;466;100 µA;
-0.751190185546875;153.190217613232;8.82568359375E-05;-0.7525634765625;467;100 µA;
-0.7501220703125;153.403840612693;9.0087890625E-05;-0.74981689453125;468;100 µA;
-0.749053955078125;153.617463612153;9.1583251953125E-05;-0.74951171875;469;100 µA;
-0.74798583984375;153.831086611614;9.136962890625E-05;-0.74755859375;470;100 µA;
-0.746917724609375;154.044709611075;9.3048095703125E-05;-0.747161865234375;471;100 µA;
-0.745849609375;154.258332610535;9.5123291015625E-05;-0.745147705078125;472;100 µA;
-0.744781494140625;154.471955609996;9.53369140625E-05;-0.745574951171875;473;100 µA;
-0.74371337890625;154.685578609456;9.686279296875E-05;-0.742828369140625;474;100 µA;
-0.742645263671875;154.899201608917;9.9273681640625E-05;-0.742095947265625;475;100 µA;
-0.7415771484375;155.112824608378;9.9700927734375E-05;-0.741363525390625;476;100 µA;
-0.740509033203125;155.326447607838;0.00010150146484375;-0.740142822265625;477;100 µA;
-0.73944091796875;155.540070607299;0.00010406494140625;-0.739105224609375;478;100 µA;
-0.738372802734375;155.75369360676;0.000104888916015625;-0.738250732421875;479;100 µA;
-0.7373046875;155.96731660622;0.000105804443359375;-0.735931396484375;480;100 µA;
-0.736236572265625;156.180939605681;0.000109375;-0.73553466796875;481;100 µA;
-0.73516845703125;156.394562605142;0.000110565185546875;-0.735260009765625;482;100 µA;
-0.734100341796875;156.608185604602;0.00011175537109375;-0.733428955078125;483;100 µA;
-0.7330322265625;156.821808604063;0.000114776611328125;-0.732391357421875;484;100 µA;
-0.731964111328125;157.035431603524;0.00011688232421875;-0.73175048828125;485;100 µA;
-0.73089599609375;157.249054602984;0.000118408203125;-0.73065185546875;486;100 µA;
-0.729827880859375;157.462677602445;0.00012152099609375;-0.728485107421875;487;100 µA;
-0.728759765625;157.676300601906;0.000123321533203125;-0.728240966796875;488;100 µA;
-0.727691650390625;157.889923601366;0.000124908447265625;-0.727142333984375;489;100 µA;
-0.72662353515625;158.103546600827;0.00012799072265625;-0.7265625;490;100 µA;
-0.725555419921875;158.317169600288;0.000131011962890625;-0.72564697265625;491;100 µA;
-0.7244873046875;158.530792599748;0.000132110595703125;-0.724090576171875;492;100 µA;
-0.723419189453125;158.744415599209;0.00013531494140625;-0.7235107421875;493;100 µA;
-0.72235107421875;158.95803859867;0.00013958740234375;-0.7225341796875;494;100 µA;
-0.721282958984375;159.17166159813;0.00014080810546875;-0.720611572265625;495;100 µA;
-0.72021484375;159.385284597591;0.00014349365234375;-0.720733642578125;496;100 µA;
-0.719146728515625;159.598907597051;0.000147918701171875;-0.719390869140625;497;100 µA;
-0.71807861328125;159.812530596512;0.000149688720703125;-0.717041015625;498;100 µA;
-0.717010498046875;160.026153595973;0.000153076171875;-0.717041015625;499;100 µA;
-0.7159423828125;160.239776595433;0.000157135009765625;-0.715362548828125;500;100 µA;
-0.714874267578125;160.453399594894;0.00015972900390625;-0.71417236328125;501;100 µA;
-0.71380615234375;160.667022594355;0.00016241455078125;-0.713714599609375;502;100 µA;
-0.712738037109375;160.880645593815;0.000167236328125;-0.712554931640625;503;100 µA;
-0.711669921875;161.094268593276;0.000170196533203125;-0.710205078125;504;100 µA;
-0.710601806640625;161.307891592737;0.000173309326171875;-0.71063232421875;505;100 µA;
-0.70953369140625;161.521514592197;0.00017822265625;-0.7099609375;506;100 µA;
-0.708465576171875;161.735137591658;0.000181854248046875;-0.708160400390625;507;100 µA;
-0.7073974609375;161.948760591119;0.00018475341796875;-0.708282470703125;508;100 µA;
-0.706329345703125;162.162383590579;0.000189910888671875;-0.70635986328125;509;100 µA;
-0.70526123046875;162.37600659004;0.00019378662109375;-0.704986572265625;510;100 µA;
-0.704193115234375;162.589629589501;0.000197052001953125;-0.703338623046875;511;100 µA;
-0.703125;162.803252588961;0.000201202392578125;-0.70318603515625;512;100 µA;
-0.702056884765625;163.016875588422;0.000207000732421875;-0.701690673828125;513;100 µA;
-0.70098876953125;163.230498587883;0.000210205078125;-0.701324462890625;514;100 µA;
-0.699920654296875;163.444121587343;0.000215545654296875;-0.699676513671875;515;100 µA;
-0.6988525390625;163.657744586804;0.000220916748046875;-0.698577880859375;516;100 µA;
-0.697784423828125;163.871367586265;0.00022479248046875;-0.697845458984375;517;100 µA;
-0.69671630859375;164.084990585725;0.0002301025390625;-0.69635009765625;518;100 µA;
-0.695648193359375;164.298613585186;0.000235931396484375;-0.695526123046875;519;100 µA;
-0.694580078125;164.512236584647;0.000239501953125;-0.694793701171875;520;100 µA;
-0.693511962890625;164.725859584107;0.000244598388671875;-0.693817138671875;521;100 µA;
-0.69244384765625;164.939482583568;0.00025152587890625;-0.691986083984375;522;100 µA;
-0.691375732421875;165.153105583028;0.00025616455078125;-0.690948486328125;523;100 µA;
-0.6903076171875;165.366728582489;0.000260650634765625;-0.690399169921875;524;100 µA;
-0.689239501953125;165.58035158195;0.000267852783203125;-0.68939208984375;525;100 µA;
-0.68817138671875;165.79397458141;0.00027349853515625;-0.687713623046875;526;100 µA;
-0.687103271484375;166.007597580871;0.000277587890625;-0.686126708984375;527;100 µA;
-0.68603515625;166.221220580332;0.000283538818359375;-0.6851806640625;528;100 µA;
-0.684967041015625;166.434843579792;0.000289520263671875;-0.684783935546875;529;100 µA;
-0.68389892578125;166.648466579253;0.000293792724609375;-0.683563232421875;530;100 µA;
-0.682830810546875;166.862089578714;0.000301361083984375;-0.6824951171875;531;100 µA;
-0.6817626953125;167.075712578174;0.000307220458984375;-0.681304931640625;532;100 µA;
-0.680694580078125;167.289335577635;0.00031243896484375;-0.68023681640625;533;100 µA;
-0.67962646484375;167.502958577096;0.000318267822265625;-0.67987060546875;534;100 µA;
-0.678558349609375;167.716581576556;0.000324859619140625;-0.6778564453125;535;100 µA;
-0.677490234375;167.930204576017;0.000328948974609375;-0.677001953125;536;100 µA;
-0.676422119140625;168.143827575478;0.000335723876953125;-0.6756591796875;537;100 µA;
-0.67535400390625;168.357450574938;0.0003416748046875;-0.675628662109375;538;100 µA;
-0.674285888671875;168.571073574399;0.000347412109375;-0.67425537109375;539;100 µA;
-0.6732177734375;168.78469657386;0.00035150146484375;-0.672943115234375;540;100 µA;
-0.672149658203125;168.99831957332;0.000358306884765625;-0.67132568359375;541;100 µA;
-0.67108154296875;169.211942572781;0.000362274169921875;-0.670501708984375;542;100 µA;
-0.670013427734375;169.425565572242;0.00036700439453125;-0.669830322265625;543;100 µA;
-0.6689453125;169.639188571702;0.00037237548828125;-0.669219970703125;544;100 µA;
-0.667877197265625;169.852811571163;0.000377471923828125;-0.667510986328125;545;100 µA;
-0.66680908203125;170.066434570624;0.00038092041015625;-0.665557861328125;546;100 µA;
-0.665740966796875;170.280057570084;0.000387054443359375;-0.664581298828125;547;100 µA;
-0.6646728515625;170.493680569545;0.00039056396484375;-0.6646728515625;548;100 µA;
-0.663604736328125;170.707303569005;0.000394561767578125;-0.6640625;549;100 µA;
-0.66253662109375;170.920926568466;0.000399993896484375;-0.662445068359375;550;100 µA;
-0.661468505859375;171.134549567927;0.000404571533203125;-0.66070556640625;551;100 µA;
-0.660400390625;171.348172567387;0.00040771484375;-0.660858154296875;552;1 mA;
-0.659332275390625;171.561795566848;0.000412750244140625;-0.6591796875;553;1 mA;
-0.65826416015625;171.775418566309;0.00041839599609375;-0.65771484375;554;1 mA;
-0.657196044921875;171.989041565769;0.000422210693359375;-0.656890869140625;555;1 mA;
-0.6561279296875;172.20266456523;0.00042681884765625;-0.65570068359375;556;1 mA;
-0.655059814453125;172.416287564691;0.000432708740234375;-0.654754638671875;557;1 mA;
-0.65399169921875;172.629910564151;0.00043707275390625;-0.65313720703125;558;1 mA;
-0.652923583984375;172.843533563612;0.000443389892578125;-0.652069091796875;559;1 mA;
-0.65185546875;173.057156563073;0.00044891357421875;-0.651763916015625;560;1 mA;
-0.650787353515625;173.270779562533;0.00045501708984375;-0.6497802734375;561;1 mA;
-0.64971923828125;173.484402561994;0.00046112060546875;-0.649749755859375;562;1 mA;
-0.648651123046875;173.698025561455;0.0004693603515625;-0.6484375;563;1 mA;
-0.6475830078125;173.911648560915;0.000474853515625;-0.647613525390625;564;1 mA;
-0.646514892578125;174.125271560376;0.0004827880859375;-0.646209716796875;565;1 mA;
-0.64544677734375;174.338894559837;0.00049163818359375;-0.644927978515625;566;1 mA;
-0.644378662109375;174.552517559297;0.000499267578125;-0.6441650390625;567;1 mA;
-0.643310546875;174.766140558758;0.00050750732421875;-0.643035888671875;568;1 mA;
-0.642242431640625;174.979763558219;0.0005181884765625;-0.64208984375;569;1 mA;
-0.64117431640625;175.193386557679;0.00052764892578125;-0.641021728515625;570;1 mA;
-0.640106201171875;175.40700955714;0.0005364990234375;-0.63983154296875;571;1 mA;
-0.6390380859375;175.620632556601;0.00054718017578125;-0.63946533203125;572;1 mA;
-0.637969970703125;175.834255556061;0.0005584716796875;-0.637115478515625;573;1 mA;
-0.63690185546875;176.047878555522;0.000567626953125;-0.63592529296875;574;1 mA;
-0.635833740234375;176.261501554982;0.000579833984375;-0.635345458984375;575;1 mA;
-0.634765625;176.475124554443;0.0005908203125;-0.634918212890625;576;1 mA;
-0.633697509765625;176.688747553904;0.00060302734375;-0.63311767578125;577;1 mA;
-0.63262939453125;176.902370553364;0.00061553955078125;-0.633026123046875;578;1 mA;
-0.631561279296875;177.115993552825;0.00062957763671875;-0.63067626953125;579;1 mA;
-0.6304931640625;177.329616552286;0.00064056396484375;-0.630096435546875;580;1 mA;
-0.629425048828125;177.543239551746;0.0006549072265625;-0.629974365234375;581;1 mA;
-0.62835693359375;177.756862551207;0.00066925048828125;-0.627838134765625;582;1 mA;
-0.627288818359375;177.970485550668;0.00068511962890625;-0.627532958984375;583;1 mA;
-0.626220703125;178.184108550128;0.00069580078125;-0.624969482421875;584;1 mA;
-0.625152587890625;178.397731549589;0.00071136474609375;-0.625396728515625;585;1 mA;
-0.62408447265625;178.61135454905;0.000726318359375;-0.623870849609375;586;1 mA;
-0.623016357421875;178.82497754851;0.0007421875;-0.622039794921875;587;1 mA;
-0.6219482421875;179.038600547971;0.00075897216796875;-0.6220703125;588;1 mA;
-0.620880126953125;179.252223547432;0.0007757568359375;-0.620452880859375;589;1 mA;
-0.61981201171875;179.465846546892;0.000791015625;-0.618743896484375;590;1 mA;
-0.618743896484375;179.679469546353;0.0008099365234375;-0.6199951171875;591;1 mA;
-0.61767578125;179.893092545814;0.00082733154296875;-0.617584228515625;592;1 mA;
-0.616607666015625;180.106715545274;0.0008447265625;-0.616729736328125;593;1 mA;
-0.61553955078125;180.320338544735;0.0008636474609375;-0.614959716796875;594;1 mA;
-0.614471435546875;180.533961544196;0.00088531494140625;-0.613372802734375;595;1 mA;
-0.6134033203125;180.747584543656;0.000902099609375;-0.613250732421875;596;1 mA;
-0.612335205078125;180.961207543117;0.0009228515625;-0.611541748046875;597;1 mA;
-0.61126708984375;181.174830542578;0.00094268798828125;-0.611602783203125;598;1 mA;
-0.610198974609375;181.388453542038;0.00096160888671875;-0.610198974609375;599;1 mA;
-0.609130859375;181.602076541499;0.00098297119140625;-0.609649658203125;600;1 mA;
-0.608062744140625;181.815699540959;0.001005859375;-0.607452392578125;601;1 mA;
-0.60699462890625;182.02932254042;0.001026611328125;-0.607574462890625;602;1 mA;
-0.605926513671875;182.242945539881;0.00104827880859375;-0.60589599609375;603;1 mA;
-0.6048583984375;182.456568539341;0.00107452392578125;-0.604522705078125;604;1 mA;
-0.603790283203125;182.670191538802;0.0010980224609375;-0.603546142578125;605;1 mA;
-0.60272216796875;182.883814538263;0.00112274169921875;-0.6024169921875;606;1 mA;
-0.601654052734375;183.097437537723;0.00114898681640625;-0.601470947265625;607;1 mA;
-0.6005859375;183.311060537184;0.0011712646484375;-0.600372314453125;608;1 mA;
-0.599517822265625;183.524683536645;0.0011993408203125;-0.598480224609375;609;1 mA;
-0.59844970703125;183.738306536105;0.0012274169921875;-0.59747314453125;610;1 mA;
-0.597381591796875;183.951929535566;0.00125518798828125;-0.597015380859375;611;1 mA;
-0.5963134765625;184.165552535027;0.00128204345703125;-0.5953369140625;612;1 mA;
-0.595245361328125;184.379175534487;0.00131500244140625;-0.594879150390625;613;1 mA;
-0.59417724609375;184.592798533948;0.00134490966796875;-0.594207763671875;614;1 mA;
-0.593109130859375;184.806421533409;0.001375732421875;-0.592437744140625;615;1 mA;
-0.592041015625;185.020044532869;0.001407470703125;-0.591705322265625;616;1 mA;
-0.590972900390625;185.23366753233;0.0014410400390625;-0.590057373046875;617;1 mA;
-0.58990478515625;185.447290531791;0.00147613525390625;-0.58892822265625;618;1 mA;
-0.588836669921875;185.660913531251;0.00151275634765625;-0.588409423828125;619;1 mA;
-0.5877685546875;185.874536530712;0.00154876708984375;-0.58746337890625;620;1 mA;
-0.586700439453125;186.088159530173;0.00158660888671875;-0.5877685546875;621;1 mA;
-0.58563232421875;186.301782529633;0.00162506103515625;-0.585418701171875;622;1 mA;
-0.584564208984375;186.515405529094;0.0016680908203125;-0.58544921875;623;1 mA;
-0.58349609375;186.729028528555;0.00170684814453125;-0.58349609375;624;1 mA;
-0.582427978515625;186.942651528015;0.00175384521484375;-0.581756591796875;625;1 mA;
-0.58135986328125;187.156274527476;0.00179840087890625;-0.581390380859375;626;1 mA;
-0.580291748046875;187.369897526936;0.0018450927734375;-0.579193115234375;627;1 mA;
-0.5792236328125;187.583520526397;0.0018927001953125;-0.578155517578125;628;1 mA;
-0.578155517578125;187.797143525858;0.001944580078125;-0.576934814453125;629;1 mA;
-0.57708740234375;188.010766525318;0.00199310302734375;-0.576995849609375;630;1 mA;
-0.576019287109375;188.224389524779;0.00204681396484375;-0.575439453125;631;1 mA;
-0.574951171875;188.43801252424;0.0021014404296875;-0.5745849609375;632;1 mA;
-0.573883056640625;188.6516355237;0.002156982421875;-0.5738525390625;633;1 mA;
-0.57281494140625;188.865258523161;0.00221435546875;-0.57244873046875;634;1 mA;
-0.571746826171875;189.078881522622;0.002274169921875;-0.571197509765625;635;1 mA;
-0.5706787109375;189.292504522082;0.0023309326171875;-0.570281982421875;636;1 mA;
-0.569610595703125;189.506127521543;0.002393798828125;-0.5693359375;637;1 mA;
-0.56854248046875;189.719750521004;0.00245635986328125;-0.568695068359375;638;1 mA;
-0.567474365234375;189.933373520464;0.00251708984375;-0.566986083984375;639;1 mA;
-0.56640625;190.146996519925;0.00258087158203125;-0.565948486328125;640;1 mA;
-0.565338134765625;190.360619519386;0.0026531982421875;-0.5643310546875;641;1 mA;
-0.56427001953125;190.574242518846;0.0027178955078125;-0.563812255859375;642;1 mA;
-0.563201904296875;190.787865518307;0.00277801513671875;-0.563568115234375;643;1 mA;
-0.5621337890625;191.001488517768;0.0028436279296875;-0.562164306640625;644;1 mA;
-0.561065673828125;191.215111517228;0.00291351318359375;-0.561248779296875;645;1 mA;
-0.55999755859375;191.428734516689;0.00298095703125;-0.559356689453125;646;1 mA;
-0.558929443359375;191.64235751615;0.00304840087890625;-0.55877685546875;647;1 mA;
-0.557861328125;191.85598051561;0.00311065673828125;-0.557830810546875;648;1 mA;
-0.556793212890625;192.069603515071;0.00317779541015625;-0.557373046875;649;1 mA;
-0.55572509765625;192.283226514532;0.00324951171875;-0.55615234375;650;1 mA;
-0.554656982421875;192.496849513992;0.003319091796875;-0.5548095703125;651;1 mA;
-0.5535888671875;192.710472513453;0.00338409423828125;-0.553680419921875;652;1 mA;
-0.552520751953125;192.924095512913;0.0034552001953125;-0.552490234375;653;1 mA;
-0.55145263671875;193.137718512374;0.0035223388671875;-0.551300048828125;654;1 mA;
-0.550384521484375;193.351341511835;0.003590087890625;-0.550201416015625;655;1 mA;
-0.54931640625;193.564964511295;0.0036553955078125;-0.5484619140625;656;1 mA;
-0.548248291015625;193.778587510756;0.00372711181640625;-0.54840087890625;657;1 mA;
-0.54718017578125;193.992210510217;0.0037921142578125;-0.546783447265625;658;1 mA;
-0.546112060546875;194.205833509677;0.00386077880859375;-0.546539306640625;659;1 mA;
-0.5450439453125;194.419456509138;0.003929443359375;-0.544342041015625;660;1 mA;
-0.543975830078125;194.633079508599;0.00399871826171875;-0.54400634765625;661;1 mA;
-0.54290771484375;194.846702508059;0.00406646728515625;-0.542755126953125;662;1 mA;
-0.541839599609375;195.06032550752;0.0041351318359375;-0.541748046875;663;1 mA;
-0.540771484375;195.273948506981;0.00420135498046875;-0.540740966796875;664;1 mA;
-0.539703369140625;195.487571506441;0.00427154541015625;-0.540130615234375;665;1 mA;
-0.53863525390625;195.701194505902;0.00434112548828125;-0.53851318359375;666;1 mA;
-0.537567138671875;195.914817505363;0.004407958984375;-0.53753662109375;667;1 mA;
-0.5364990234375;196.128440504823;0.00447601318359375;-0.536376953125;668;1 mA;
-0.535430908203125;196.342063504284;0.00454925537109375;-0.536529541015625;669;1 mA;
-0.53436279296875;196.555686503745;0.004615478515625;-0.534027099609375;670;1 mA;
-0.533294677734375;196.769309503205;0.0046844482421875;-0.533416748046875;671;1 mA;
-0.5322265625;196.982932502666;0.0047503662109375;-0.532440185546875;672;1 mA;
-0.531158447265625;197.196555502127;0.00482330322265625;-0.530181884765625;673;1 mA;
-0.53009033203125;197.410178501587;0.00488922119140625;-0.5296630859375;674;1 mA;
-0.529022216796875;197.623801501048;0.0049609375;-0.528472900390625;675;1 mA;
-0.5279541015625;197.837424500509;0.0050262451171875;-0.527679443359375;676;1 mA;Current overload
-0.526885986328125;198.051047499969;0.00510009765625;-0.5263671875;677;1 mA;Current overload
-0.52581787109375;198.26467049943;0.00517120361328125;-0.525634765625;678;1 mA;Current overload
-0.524749755859375;198.47829349889;0.00524078369140625;-0.524200439453125;679;1 mA;Current overload
-0.523681640625;198.691916498351;0.00530731201171875;-0.523040771484375;680;1 mA;Current overload
-0.522613525390625;198.905539497812;0.00537933349609375;-0.52239990234375;681;1 mA;Current overload
-0.52154541015625;199.119162497272;0.00545074462890625;-0.52227783203125;682;1 mA;Current overload
-0.520477294921875;199.332785496733;0.00552001953125;-0.51953125;683;1 mA;Current overload
-0.5194091796875;199.546408496194;0.00558868408203125;-0.519073486328125;684;1 mA;Current overload
-0.518341064453125;199.760031495654;0.00566070556640625;-0.518035888671875;685;1 mA;Current overload
-0.51727294921875;199.973654495115;0.0057293701171875;-0.516204833984375;686;1 mA;Current overload
-0.516204833984375;200.187277494576;0.00580291748046875;-0.51666259765625;687;1 mA;Current overload
-0.51513671875;200.400900494036;0.00587005615234375;-0.516204833984375;688;1 mA;Current overload
-0.514068603515625;200.614523493497;0.00594268798828125;-0.5152587890625;689;1 mA;Current overload
-0.51300048828125;200.828146492958;0.006011962890625;-0.5128173828125;690;1 mA;Current overload
-0.511932373046875;201.041769492418;0.00608612060546875;-0.511474609375;691;1 mA;Current overload
-0.5108642578125;201.255392491879;0.00615264892578125;-0.51043701171875;692;1 mA;Current overload
-0.509796142578125;201.46901549134;0.0062255859375;-0.509063720703125;693;1 mA;Current overload
-0.50872802734375;201.6826384908;0.0062957763671875;-0.5087890625;694;1 mA;Current overload
-0.507659912109375;201.896261490261;0.006363525390625;-0.507110595703125;695;1 mA;Current overload
-0.506591796875;202.109884489722;0.00643463134765625;-0.50775146484375;696;1 mA;Current overload
-0.505523681640625;202.323507489182;0.00651031494140625;-0.505462646484375;697;1 mA;Current overload
-0.50445556640625;202.537130488643;0.00658111572265625;-0.504913330078125;698;1 mA;Current overload
-0.503387451171875;202.750753488104;0.0066522216796875;-0.503021240234375;699;1 mA;Current overload
-0.5023193359375;202.964376487564;0.00672393798828125;-0.5032958984375;700;1 mA;Current overload
-0.501251220703125;203.177999487025;0.006796875;-0.500335693359375;701;1 mA;Current overload
-0.50018310546875;203.391622486486;0.00686614990234375;-0.50018310546875;702;1 mA;Current overload
-0.499114990234375;203.605245485946;0.00694000244140625;-0.498870849609375;703;1 mA;Current overload
-0.498046875;203.818868485407;0.00700653076171875;-0.497528076171875;704;1 mA;Current overload
-0.496978759765625;204.032491484867;0.00708343505859375;-0.496826171875;705;1 mA;Current overload
-0.49591064453125;204.246114484328;0.00715606689453125;-0.495941162109375;706;1 mA;Current overload
-0.494842529296875;204.459737483789;0.0072283935546875;-0.495361328125;707;1 mA;Current overload
-0.4937744140625;204.673360483249;0.00729583740234375;-0.492889404296875;708;1 mA;Current overload
-0.492706298828125;204.88698348271;0.0073712158203125;-0.492523193359375;709;1 mA;Current overload
-0.49163818359375;205.100606482171;0.0074420166015625;-0.49139404296875;710;1 mA;Current overload
-0.490570068359375;205.314229481631;0.007510986328125;-0.490264892578125;711;1 mA;Current overload
-0.489501953125;205.527852481092;0.00758087158203125;-0.489898681640625;712;1 mA;Current overload
-0.488433837890625;205.741475480553;0.00765228271484375;-0.487823486328125;713;1 mA;Current overload
-0.48736572265625;205.955098480013;0.00772796630859375;-0.487396240234375;714;1 mA;Current overload
-0.486297607421875;206.168721479474;0.0078021240234375;-0.486602783203125;715;1 mA;Current overload
-0.4852294921875;206.382344478935;0.00787200927734375;-0.4854736328125;716;1 mA;Current overload
-0.484161376953125;206.595967478395;0.007943115234375;-0.484130859375;717;1 mA;Current overload
-0.48309326171875;206.809590477856;0.0080133056640625;-0.482879638671875;718;1 mA;Current overload
-0.482025146484375;207.023213477317;0.00808685302734375;-0.482147216796875;719;1 mA;Current overload
-0.48095703125;207.236836476777;0.00815093994140625;-0.481170654296875;720;1 mA;Current overload
-0.479888916015625;207.450459476238;0.00822601318359375;-0.47943115234375;721;1 mA;Current overload
-0.47882080078125;207.664082475699;0.00829437255859375;-0.478668212890625;722;1 mA;Current overload
-0.477752685546875;207.877705475159;0.00836761474609375;-0.476806640625;723;1 mA;Current overload
-0.4766845703125;208.09132847462;0.00843597412109375;-0.47637939453125;724;1 mA;Current overload
-0.475616455078125;208.304951474081;0.00850921630859375;-0.475311279296875;725;1 mA;Current overload
-0.47454833984375;208.518574473541;0.008575439453125;-0.4739990234375;726;1 mA;Current overload
-0.473480224609375;208.732197473002;0.00864471435546875;-0.47332763671875;727;1 mA;Current overload
-0.472412109375;208.945820472463;0.00871246337890625;-0.47222900390625;728;1 mA;Current overload
-0.471343994140625;209.159443471923;0.00878173828125;-0.470611572265625;729;1 mA;Current overload
-0.47027587890625;209.373066471384;0.00884918212890625;-0.468475341796875;730;1 mA;Current overload
-0.469207763671875;209.586689470844;0.00891815185546875;-0.469940185546875;731;1 mA;Current overload
-0.4681396484375;209.800312470305;0.0089825439453125;-0.468017578125;732;1 mA;Current overload
-0.467071533203125;210.013935469766;0.0090533447265625;-0.4671630859375;733;1 mA;Current overload
-0.46600341796875;210.227558469226;0.00912109375;-0.46612548828125;734;1 mA;Current overload
-0.464935302734375;210.441181468687;0.00918792724609375;-0.46417236328125;735;1 mA;Current overload
-0.4638671875;210.654804468148;0.00924896240234375;-0.463287353515625;736;1 mA;Current overload
-0.462799072265625;210.868427467608;0.009322509765625;-0.462554931640625;737;1 mA;Current overload
-0.46173095703125;211.082050467069;0.0093865966796875;-0.4615478515625;738;1 mA;Current overload
-0.460662841796875;211.29567346653;0.009451904296875;-0.4609375;739;1 mA;Current overload
-0.4595947265625;211.50929646599;0.00951446533203125;-0.45880126953125;740;1 mA;Current overload
-0.458526611328125;211.722919465451;0.0095831298828125;-0.458343505859375;741;1 mA;Current overload
-0.45745849609375;211.936542464912;0.0096453857421875;-0.45697021484375;742;1 mA;Current overload
-0.456390380859375;212.150165464372;0.0097100830078125;-0.456939697265625;743;1 mA;Current overload
-0.455322265625;212.363788463833;0.00977081298828125;-0.4554443359375;744;1 mA;Current overload
-0.454254150390625;212.577411463294;0.0098321533203125;-0.45391845703125;745;1 mA;Current overload
-0.45318603515625;212.791034462754;0.00989654541015625;-0.4539794921875;746;1 mA;Current overload
-0.452117919921875;213.004657462215;0.0099554443359375;-0.451751708984375;747;1 mA;Current overload
-0.4510498046875;213.218280461676;0.0099871826171875;-0.451141357421875;748;1 mA;Current overload
-0.449981689453125;213.431903461136;0.00999969482421875;-0.449798583984375;749;1 mA;Current overload
-0.44891357421875;213.645526460597;0.00999969482421875;-0.449066162109375;750;1 mA;Current overload
-0.447845458984375;213.859149460058;0.00999969482421875;-0.4473876953125;751;1 mA;Current overload
-0.44677734375;214.072772459518;0.00999969482421875;-0.44744873046875;752;1 mA;Current overload
-0.445709228515625;214.286395458979;0.00999969482421875;-0.445770263671875;753;1 mA;Current overload
-0.44464111328125;214.50001845844;0.00999969482421875;-0.443939208984375;754;1 mA;Current overload
-0.443572998046875;214.7136414579;0.00999969482421875;-0.4437255859375;755;1 mA;Current overload
-0.4425048828125;214.927264457361;0.00999969482421875;-0.442291259765625;756;1 mA;Current overload
-0.441436767578125;215.140887456821;0.00999969482421875;-0.441497802734375;757;1 mA;Current overload
-0.44036865234375;215.354510456282;0.00999969482421875;-0.43963623046875;758;1 mA;Current overload
-0.439300537109375;215.568133455743;0.00999969482421875;-0.438873291015625;759;1 mA;Current overload
-0.438232421875;215.781756455203;0.00999969482421875;-0.4376220703125;760;1 mA;Current overload
-0.437164306640625;215.995379454664;0.00999969482421875;-0.436981201171875;761;1 mA;Current overload
-0.43609619140625;216.209002454125;0.00999969482421875;-0.4364013671875;762;1 mA;Current overload
-0.435028076171875;216.422625453585;0.00999969482421875;-0.43487548828125;763;1 mA;Current overload
-0.4339599609375;216.636248453046;0.00999969482421875;-0.43377685546875;764;1 mA;Current overload
-0.432891845703125;216.849871452507;0.00999969482421875;-0.433013916015625;765;1 mA;Current overload
-0.43182373046875;217.063494451967;0.00999969482421875;-0.431488037109375;766;1 mA;Current overload
-0.430755615234375;217.277117451428;0.00999969482421875;-0.430938720703125;767;1 mA;Current overload
-0.4296875;217.490740450889;0.00999969482421875;-0.4287109375;768;1 mA;Current overload
-0.428619384765625;217.704363450349;0.00999969482421875;-0.427825927734375;769;1 mA;Current overload
-0.42755126953125;217.91798644981;0.00999969482421875;-0.427215576171875;770;1 mA;Current overload
-0.426483154296875;218.131609449271;0.00999969482421875;-0.4261474609375;771;1 mA;Current overload
-0.4254150390625;218.345232448731;0.00999969482421875;-0.425262451171875;772;1 mA;Current overload
-0.424346923828125;218.558855448192;0.00999969482421875;-0.42529296875;773;1 mA;Current overload
-0.42327880859375;218.772478447653;0.00999969482421875;-0.4228515625;774;1 mA;Current overload
-0.422210693359375;218.986101447113;0.00999969482421875;-0.422027587890625;775;1 mA;Current overload
-0.421142578125;219.199724446574;0.00999969482421875;-0.4207763671875;776;1 mA;Current overload
-0.420074462890625;219.413347446035;0.00999969482421875;-0.419769287109375;777;1 mA;Current overload
-0.41900634765625;219.626970445495;0.00999969482421875;-0.418975830078125;778;1 mA;Current overload
-0.417938232421875;219.840593444956;0.00999969482421875;-0.417449951171875;779;1 mA;Current overload
-0.4168701171875;220.054216444417;0.00999969482421875;-0.416961669921875;780;1 mA;Current overload
-0.415802001953125;220.267839443877;0.00999969482421875;-0.414764404296875;781;1 mA;Current overload
-0.41473388671875;220.481462443338;0.00999969482421875;-0.41363525390625;782;1 mA;Current overload
-0.413665771484375;220.695085442798;0.00999969482421875;-0.41357421875;783;1 mA;Current overload
-0.41259765625;220.908708442259;0.00999969482421875;-0.41229248046875;784;1 mA;Current overload
-0.411529541015625;221.12233144172;0.00999969482421875;-0.410888671875;785;1 mA;Current overload
-0.41046142578125;221.33595444118;0.00999969482421875;-0.409149169921875;786;1 mA;Current overload
-0.409393310546875;221.549577440641;0.00999969482421875;-0.409271240234375;787;1 mA;Current overload
-0.4083251953125;221.763200440102;0.00999969482421875;-0.408172607421875;788;1 mA;Current overload
-0.407257080078125;221.976823439562;0.00999969482421875;-0.408294677734375;789;1 mA;Current overload
-0.40618896484375;222.190446439023;0.00999969482421875;-0.406280517578125;790;1 mA;Current overload
-0.405120849609375;222.404069438484;0.00999969482421875;-0.4049072265625;791;1 mA;Current overload
-0.404052734375;222.617692437944;0.00999969482421875;-0.404144287109375;792;1 mA;Current overload
-0.402984619140625;222.831315437405;0.00999969482421875;-0.40228271484375;793;1 mA;Current overload
-0.40191650390625;223.044938436866;0.00999969482421875;-0.4014892578125;794;1 mA;Current overload
-0.400848388671875;223.258561436326;0.00999969482421875;-0.401153564453125;795;1 mA;Current overload
-0.3997802734375;223.472184435787;0.00999969482421875;-0.39910888671875;796;1 mA;Current overload
-0.398712158203125;223.685807435248;0.00999969482421875;-0.398223876953125;797;1 mA;Current overload
-0.39764404296875;223.899430434708;0.00999969482421875;-0.3973388671875;798;1 mA;Current overload
-0.396575927734375;224.113053434169;0.00999969482421875;-0.396148681640625;799;1 mA;Current overload
-0.3955078125;224.32667643363;0.00999969482421875;-0.39459228515625;800;1 mA;Current overload
-0.394439697265625;224.54029943309;0.00999969482421875;-0.39453125;801;1 mA;Current overload
-0.39337158203125;224.753922432551;0.00999969482421875;-0.39495849609375;802;1 mA;Current overload
-0.392303466796875;224.967545432012;0.00999969482421875;-0.39227294921875;803;1 mA;Current overload
-0.3912353515625;225.181168431472;0.00999969482421875;-0.391021728515625;804;1 mA;Current overload
-0.390167236328125;225.394791430933;0.00999969482421875;-0.389892578125;805;1 mA;Current overload
-0.38909912109375;225.608414430394;0.00999969482421875;-0.38861083984375;806;1 mA;Current overload
-0.388031005859375;225.822037429854;0.00999969482421875;-0.387969970703125;807;1 mA;Current overload
-0.386962890625;226.035660429315;0.00999969482421875;-0.3868408203125;808;1 mA;Current overload
-0.385894775390625;226.249283428775;0.00999969482421875;-0.385589599609375;809;1 mA;Current overload
-0.38482666015625;226.462906428236;0.00999969482421875;-0.38397216796875;810;1 mA;Current overload
-0.383758544921875;226.676529427697;0.00999969482421875;-0.3839111328125;811;1 mA;Current overload
-0.3826904296875;226.890152427157;0.00999969482421875;-0.3828125;812;1 mA;Current overload
-0.381622314453125;227.103775426618;0.00999969482421875;-0.38153076171875;813;1 mA;Current overload
-0.38055419921875;227.317398426079;0.00999969482421875;-0.380462646484375;814;1 mA;Current overload
-0.379486083984375;227.531021425539;0.00999969482421875;-0.37933349609375;815;1 mA;Current overload
-0.37841796875;227.744644425;0.00999969482421875;-0.378387451171875;816;1 mA;Current overload
-0.377349853515625;227.958267424461;0.00999969482421875;-0.376922607421875;817;1 mA;Current overload
-0.37628173828125;228.171890423921;0.00999969482421875;-0.376739501953125;818;1 mA;Current overload
-0.375213623046875;228.385513423382;0.00999969482421875;-0.374481201171875;819;1 mA;Current overload
-0.3741455078125;228.599136422843;0.00999969482421875;-0.372894287109375;820;1 mA;Current overload
-0.373077392578125;228.812759422303;0.00999969482421875;-0.372894287109375;821;1 mA;Current overload
-0.37200927734375;229.026382421764;0.00999969482421875;-0.372406005859375;822;1 mA;Current overload
-0.370941162109375;229.240005421225;0.00999969482421875;-0.370849609375;823;1 mA;Current overload
-0.369873046875;229.453628420685;0.00999969482421875;-0.3701171875;824;1 mA;Current overload
-0.368804931640625;229.667251420146;0.00999969482421875;-0.368682861328125;825;1 mA;Current overload
-0.36773681640625;229.880874419607;0.00999969482421875;-0.36688232421875;826;1 mA;Current overload
-0.366668701171875;230.094497419067;0.00999969482421875;-0.366790771484375;827;1 mA;Current overload
-0.3656005859375;230.308120418528;0.00999969482421875;-0.365203857421875;828;1 mA;Current overload
-0.364532470703125;230.521743417989;0.00999969482421875;-0.3638916015625;829;1 mA;Current overload
-0.36346435546875;230.735366417449;0.00999969482421875;-0.363739013671875;830;1 mA;Current overload
-0.362396240234375;230.94898941691;0.00999969482421875;-0.362152099609375;831;1 mA;Current overload
-0.361328125;231.162612416371;0.00999969482421875;-0.360626220703125;832;1 mA;Current overload
-0.360260009765625;231.376235415831;0.00999969482421875;-0.360015869140625;833;1 mA;Current overload
-0.35919189453125;231.589858415292;0.00999969482421875;-0.358673095703125;834;1 mA;Current overload
-0.358123779296875;231.803481414752;0.00999969482421875;-0.358734130859375;835;1 mA;Current overload
-0.3570556640625;232.017104414213;0.00999969482421875;-0.356903076171875;836;1 mA;Current overload
-0.355987548828125;232.230727413674;0.00999969482421875;-0.355804443359375;837;1 mA;Current overload
-0.35491943359375;232.444350413134;0.00999969482421875;-0.354644775390625;838;1 mA;Current overload
-0.353851318359375;232.657973412595;0.00999969482421875;-0.353912353515625;839;1 mA;Current overload
-0.352783203125;232.871596412056;0.00999969482421875;-0.35284423828125;840;1 mA;Current overload
-0.351715087890625;233.085219411516;0.00999969482421875;-0.35186767578125;841;1 mA;Current overload
-0.35064697265625;233.298842410977;0.00999969482421875;-0.34942626953125;842;1 mA;Current overload
-0.349578857421875;233.512465410438;0.00999969482421875;-0.3480224609375;843;1 mA;Current overload
-0.3485107421875;233.726088409898;0.00999969482421875;-0.350067138671875;844;1 mA;Current overload
-0.347442626953125;233.939711409359;0.00999969482421875;-0.347137451171875;845;1 mA;Current overload
-0.34637451171875;234.15333440882;0.00999969482421875;-0.3455810546875;846;1 mA;Current overload
-0.345306396484375;234.36695740828;0.00999969482421875;-0.345001220703125;847;1 mA;Current overload
-0.34423828125;234.580580407741;0.00999969482421875;-0.34454345703125;848;1 mA;Current overload
-0.343170166015625;234.794203407202;0.00999969482421875;-0.341522216796875;849;1 mA;Current overload
-0.34210205078125;235.007826406662;0.00999969482421875;-0.342437744140625;850;1 mA;Current overload
-0.341033935546875;235.221449406123;0.00999969482421875;-0.3404541015625;851;1 mA;Current overload
-0.3399658203125;235.435072405584;0.00999969482421875;-0.339569091796875;852;1 mA;Current overload
-0.338897705078125;235.648695405044;0.00999969482421875;-0.33807373046875;853;1 mA;Current overload
-0.33782958984375;235.862318404505;0.00999969482421875;-0.337646484375;854;1 mA;Current overload
-0.336761474609375;236.075941403966;0.00999969482421875;-0.3360595703125;855;1 mA;Current overload
-0.335693359375;236.289564403426;0.00999969482421875;-0.3369140625;856;1 mA;Current overload
-0.334625244140625;236.503187402887;0.00999969482421875;-0.334320068359375;857;1 mA;Current overload
-0.33355712890625;236.716810402348;0.00999969482421875;-0.3321533203125;858;1 mA;Current overload
-0.332489013671875;236.930433401808;0.00999969482421875;-0.332916259765625;859;1 mA;Current overload
-0.3314208984375;237.144056401269;0.00999969482421875;-0.33154296875;860;1 mA;Current overload
-0.330352783203125;237.357679400729;0.00999969482421875;-0.329376220703125;861;1 mA;Current overload
-0.32928466796875;237.57130240019;0.00999969482421875;-0.329559326171875;862;1 mA;Current overload
-0.328216552734375;237.784925399651;0.00999969482421875;-0.327239990234375;863;1 mA;Current overload
-0.3271484375;237.998548399111;0.00999969482421875;-0.326995849609375;864;1 mA;Current overload
-0.326080322265625;238.212171398572;0.00999969482421875;-0.326019287109375;865;1 mA;Current overload
-0.32501220703125;238.425794398033;0.00999969482421875;-0.32489013671875;866;1 mA;Current overload
-0.323944091796875;238.639417397493;0.00999969482421875;-0.323974609375;867;1 mA;Current overload
-0.3228759765625;238.853040396954;0.00999969482421875;-0.322479248046875;868;1 mA;Current overload
-0.321807861328125;239.066663396415;0.00999969482421875;-0.321441650390625;869;1 mA;Current overload
-0.32073974609375;239.280286395875;0.00999969482421875;-0.319793701171875;870;1 mA;Current overload
-0.319671630859375;239.493909395336;0.00999969482421875;-0.320343017578125;871;1 mA;Current overload
-0.318603515625;239.707532394797;0.00999969482421875;-0.318328857421875;872;1 mA;Current overload
-0.317535400390625;239.921155394257;0.00999969482421875;-0.317108154296875;873;1 mA;Current overload
-0.31646728515625;240.134778393718;0.00999969482421875;-0.3173828125;874;1 mA;Current overload
-0.315399169921875;240.348401393179;0.00999969482421875;-0.315338134765625;875;1 mA;Current overload
-0.3143310546875;240.562024392639;0.00999969482421875;-0.314056396484375;876;1 mA;Current overload
-0.313262939453125;240.7756473921;0.00999969482421875;-0.3126220703125;877;1 mA;Current overload
-0.31219482421875;240.989270391561;0.00999969482421875;-0.31304931640625;878;1 mA;Current overload
-0.311126708984375;241.202893391021;0.00999969482421875;-0.311004638671875;879;1 mA;Current overload
-0.31005859375;241.416516390482;0.00999969482421875;-0.309600830078125;880;1 mA;Current overload
-0.308990478515625;241.630139389943;0.00999969482421875;-0.30926513671875;881;1 mA;Current overload
-0.30792236328125;241.843762389403;0.00999969482421875;-0.30828857421875;882;1 mA;Current overload
-0.306854248046875;242.057385388864;0.00999969482421875;-0.306488037109375;883;1 mA;Current overload
-0.3057861328125;242.271008388325;0.00999969482421875;-0.30560302734375;884;1 mA;Current overload
-0.304718017578125;242.484631387785;0.00999969482421875;-0.304779052734375;885;1 mA;Current overload
-0.30364990234375;242.698254387246;0.00999969482421875;-0.304107666015625;886;1 mA;Current overload
-0.302581787109375;242.911877386706;0.00999969482421875;-0.303955078125;887;1 mA;Current overload
-0.301513671875;243.125500386167;0.00999969482421875;-0.3006591796875;888;1 mA;Current overload
-0.300445556640625;243.339123385628;0.00999969482421875;-0.300323486328125;889;1 mA;Current overload
-0.29937744140625;243.552746385088;0.00999969482421875;-0.298919677734375;890;1 mA;Current overload
-0.298309326171875;243.766369384549;0.00999969482421875;-0.298614501953125;891;1 mA;Current overload
-0.2972412109375;243.97999238401;0.00999969482421875;-0.297271728515625;892;1 mA;Current overload
-0.296173095703125;244.19361538347;0.00999969482421875;-0.296966552734375;893;1 mA;Current overload
-0.29510498046875;244.407238382931;0.00999969482421875;-0.295440673828125;894;1 mA;Current overload
-0.294036865234375;244.620861382392;0.00999969482421875;-0.293487548828125;895;1 mA;Current overload
-0.29296875;244.834484381852;0.00999969482421875;-0.292633056640625;896;1 mA;Current overload
-0.291900634765625;245.048107381313;0.00999969482421875;-0.291168212890625;897;1 mA;Current overload
-0.29083251953125;245.261730380774;0.00999969482421875;-0.290924072265625;898;1 mA;Current overload
-0.289764404296875;245.475353380234;0.00999969482421875;-0.28955078125;899;1 mA;Current overload
-0.2886962890625;245.688976379695;0.00999969482421875;-0.288421630859375;900;1 mA;Current overload
-0.287628173828125;245.902599379156;0.00999969482421875;-0.2877197265625;901;1 mA;Current overload
-0.28656005859375;246.116222378616;0.00999969482421875;-0.286895751953125;902;1 mA;Current overload
-0.285491943359375;246.329845378077;0.00999969482421875;-0.285247802734375;903;1 mA;Current overload
-0.284423828125;246.543468377538;0.00999969482421875;-0.2845458984375;904;1 mA;Current overload
-0.283355712890625;246.757091376998;0.00999969482421875;-0.28369140625;905;1 mA;Current overload
-0.28228759765625;246.970714376459;0.00999969482421875;-0.2822265625;906;1 mA;Current overload
-0.281219482421875;247.18433737592;0.00999969482421875;-0.281524658203125;907;1 mA;Current overload
-0.2801513671875;247.39796037538;0.00999969482421875;-0.28045654296875;908;1 mA;Current overload
-0.279083251953125;247.611583374841;0.00999969482421875;-0.278900146484375;909;1 mA;Current overload
-0.27801513671875;247.825206374302;0.00999969482421875;-0.2774658203125;910;1 mA;Current overload
-0.276947021484375;248.038829373762;0.00999969482421875;-0.276092529296875;911;1 mA;Current overload
-0.27587890625;248.252452373223;0.00999969482421875;-0.27545166015625;912;1 mA;Current overload
-0.274810791015625;248.466075372683;0.00999969482421875;-0.274810791015625;913;1 mA;Current overload
-0.27374267578125;248.679698372144;0.00999969482421875;-0.2738037109375;914;1 mA;Current overload
-0.272674560546875;248.893321371605;0.00999969482421875;-0.272216796875;915;1 mA;Current overload
-0.2716064453125;249.106944371065;0.00999969482421875;-0.271575927734375;916;1 mA;Current overload
-0.270538330078125;249.320567370526;0.00999969482421875;-0.271209716796875;917;1 mA;Current overload
-0.26947021484375;249.534190369987;0.00999969482421875;-0.269287109375;918;1 mA;Current overload
-0.268402099609375;249.747813369447;0.00999969482421875;-0.269439697265625;919;1 mA;Current overload
-0.267333984375;249.961436368908;0.00999969482421875;-0.267364501953125;920;1 mA;Current overload
-0.266265869140625;250.175059368369;0.00999969482421875;-0.266693115234375;921;1 mA;Current overload
-0.26519775390625;250.388682367829;0.00999969482421875;-0.26531982421875;922;1 mA;Current overload
-0.264129638671875;250.60230536729;0.00999969482421875;-0.264739990234375;923;1 mA;Current overload
-0.2630615234375;250.815928366751;0.00999969482421875;-0.26263427734375;924;1 mA;Current overload
-0.261993408203125;251.029551366211;0.00999969482421875;-0.2615966796875;925;1 mA;Current overload
-0.26092529296875;251.243174365672;0.00999969482421875;-0.2611083984375;926;1 mA;Current overload
-0.259857177734375;251.456797365133;0.00999969482421875;-0.259124755859375;927;1 mA;Current overload
-0.2587890625;251.670420364593;0.00999969482421875;-0.259033203125;928;1 mA;Current overload
-0.257720947265625;251.884043364054;0.00999969482421875;-0.257080078125;929;1 mA;Current overload
-0.25665283203125;252.097666363515;0.00999969482421875;-0.256591796875;930;1 mA;Current overload
-0.255584716796875;252.311289362975;0.00999969482421875;-0.256011962890625;931;1 mA;Current overload
-0.2545166015625;252.524912362436;0.00999969482421875;-0.2545166015625;932;1 mA;Current overload
-0.253448486328125;252.738535361897;0.00999969482421875;-0.2529296875;933;1 mA;Current overload
-0.25238037109375;252.952158361357;0.00999969482421875;-0.25079345703125;934;1 mA;Current overload
-0.251312255859375;253.165781360818;0.00999969482421875;-0.250946044921875;935;1 mA;Current overload
-0.250244140625;253.379404360279;0.00999969482421875;-0.249603271484375;936;1 mA;Current overload
-0.249176025390625;253.593027359739;0.00999969482421875;-0.249298095703125;937;1 mA;Current overload
