Potential applied (V);Time (s);WE(1).Current (A);WE(1).Potential (V);Index;Current range;Overload
-1.24893188476563;1021.81369742017;-0.0038580322265625;-1.24969482421875;1;10 mA;
-1.24786376953125;1022.02732041963;-0.0026202392578125;-1.2481689453125;2;10 mA;
-1.24679565429688;1022.24094341909;-0.001959228515625;-1.24755859375;3;10 mA;
-1.2457275390625;1022.45456641855;-0.00155120849609375;-1.246337890625;4;10 mA;
-1.24465942382813;1022.66818941801;-0.00127960205078125;-1.2451171875;5;10 mA;
-1.24359130859375;1022.88181241747;-0.00108428955078125;-1.2445068359375;6;10 mA;
-1.24252319335938;1023.09543541693;-0.000938720703125;-1.24267578125;7;10 mA;
-1.241455078125;1023.30905841639;-0.0008282470703125;-1.24176025390625;8;10 mA;
-1.24038696289063;1023.52268141585;-0.0007421875;-1.24114990234375;9;10 mA;
-1.23931884765625;1023.73630441531;-0.000672607421875;-1.240234375;10;10 mA;
-1.23825073242188;1023.94992741477;-0.00061614990234375;-1.23931884765625;11;10 mA;
-1.2371826171875;1024.16355041424;-0.0005694580078125;-1.2384033203125;12;1 mA;
-1.23611450195313;1024.3771734137;-0.0005303955078125;-1.2359619140625;13;1 mA;
-1.23504638671875;1024.59079641316;-0.000498046875;-1.23565673828125;14;1 mA;
-1.23397827148438;1024.80441941262;-0.00047088623046875;-1.2347412109375;15;1 mA;
-1.23291015625;1025.01804241208;-0.0004471435546875;-1.2347412109375;16;1 mA;
-1.23184204101563;1025.23166541154;-0.0004256591796875;-1.23199462890625;17;1 mA;
-1.23077392578125;1025.445288411;-0.000407470703125;-1.2310791015625;18;1 mA;
-1.22970581054688;1025.65891141046;-0.000390045166015625;-1.23016357421875;19;1 mA;
-1.2286376953125;1025.87253440992;-0.000374725341796875;-1.22894287109375;20;1 mA;
-1.22756958007813;1026.08615740938;-0.0003612060546875;-1.22802734375;21;1 mA;
-1.22650146484375;1026.29978040884;-0.000348724365234375;-1.2274169921875;22;1 mA;
-1.22543334960938;1026.5134034083;-0.00033685302734375;-1.22711181640625;23;1 mA;
-1.224365234375;1026.72702640776;-0.000326690673828125;-1.22528076171875;24;1 mA;
-1.22329711914063;1026.94064940722;-0.00031646728515625;-1.22406005859375;25;1 mA;
-1.22222900390625;1027.15427240668;-0.000306793212890625;-1.221923828125;26;1 mA;
-1.22116088867188;1027.36789540615;-0.000298309326171875;-1.2213134765625;27;1 mA;
-1.2200927734375;1027.58151840561;-0.00028997802734375;-1.22100830078125;28;1 mA;
-1.21902465820313;1027.79514140507;-0.00028167724609375;-1.2200927734375;29;1 mA;
-1.21795654296875;1028.00876440453;-0.000274871826171875;-1.21917724609375;30;1 mA;
-1.21688842773438;1028.22238740399;-0.000268218994140625;-1.21734619140625;31;1 mA;
-1.2158203125;1028.43601040345;-0.000261962890625;-1.21612548828125;32;1 mA;
-1.21475219726563;1028.64963340291;-0.0002559814453125;-1.2164306640625;33;1 mA;
-1.21368408203125;1028.86325640237;-0.00025054931640625;-1.21429443359375;34;1 mA;
-1.21261596679688;1029.07687940183;-0.00024462890625;-1.21429443359375;35;1 mA;
-1.2115478515625;1029.29050240129;-0.000239959716796875;-1.2115478515625;36;1 mA;
-1.21047973632813;1029.50412540075;-0.000235198974609375;-1.21002197265625;37;1 mA;
-1.20941162109375;1029.71774840021;-0.0002301025390625;-1.2103271484375;38;1 mA;
-1.20834350585938;1029.93137139967;-0.000225830078125;-1.2091064453125;39;1 mA;
-1.207275390625;1030.14499439913;-0.000221954345703125;-1.20880126953125;40;1 mA;
-1.20620727539063;1030.35861739859;-0.000217315673828125;-1.20635986328125;41;1 mA;
-1.20513916015625;1030.57224039806;-0.000213348388671875;-1.20574951171875;42;1 mA;
-1.20407104492188;1030.78586339752;-0.0002098388671875;-1.20269775390625;43;1 mA;
-1.2030029296875;1030.99948639698;-0.00020611572265625;-1.20208740234375;44;1 mA;
-1.20193481445313;1031.21310939644;-0.00020263671875;-1.20330810546875;45;1 mA;
-1.20086669921875;1031.4267323959;-0.000199737548828125;-1.201171875;46;1 mA;
-1.19979858398438;1031.64035539536;-0.00019610595703125;-1.20025634765625;47;1 mA;
-1.19873046875;1031.85397839482;-0.000193084716796875;-1.1993408203125;48;1 mA;
-1.19766235351563;1032.06760139428;-0.00019000244140625;-1.19842529296875;49;1 mA;
-1.19659423828125;1032.28122439374;-0.00018701171875;-1.19720458984375;50;1 mA;
-1.19552612304688;1032.4948473932;-0.00018402099609375;-1.19598388671875;51;1 mA;
-1.1944580078125;1032.70847039266;-0.000181732177734375;-1.195068359375;52;1 mA;
-1.19338989257813;1032.92209339212;-0.00017877197265625;-1.19384765625;53;1 mA;
-1.19232177734375;1033.13571639158;-0.000175933837890625;-1.19293212890625;54;1 mA;
-1.19125366210938;1033.34933939104;-0.000173583984375;-1.19171142578125;55;1 mA;
-1.190185546875;1033.5629623905;-0.0001707763671875;-1.19049072265625;56;1 mA;
-1.18911743164063;1033.77658538997;-0.00016766357421875;-1.18988037109375;57;1 mA;
-1.18804931640625;1033.99020838943;-0.0001654052734375;-1.1883544921875;58;1 mA;
-1.18698120117188;1034.20383138889;-0.00016259765625;-1.1871337890625;59;1 mA;
-1.1859130859375;1034.41745438835;-0.000159698486328125;-1.18621826171875;60;1 mA;
-1.18484497070313;1034.63107738781;-0.000157318115234375;-1.18438720703125;61;1 mA;
-1.18377685546875;1034.84470038727;-0.000154937744140625;-1.1859130859375;62;1 mA;
-1.18270874023438;1035.05832338673;-0.000152130126953125;-1.1834716796875;63;1 mA;
-1.181640625;1035.27194638619;-0.000150146484375;-1.18194580078125;64;1 mA;
-1.18057250976563;1035.48556938565;-0.0001475830078125;-1.18072509765625;65;1 mA;
-1.17950439453125;1035.69919238511;-0.00014508056640625;-1.1798095703125;66;1 mA;
-1.17843627929688;1035.91281538457;-0.000142913818359375;-1.17950439453125;67;1 mA;
-1.1773681640625;1036.12643838403;-0.000140960693359375;-1.17828369140625;68;1 mA;
-1.17630004882813;1036.34006138349;-0.000138458251953125;-1.1773681640625;69;1 mA;
-1.17523193359375;1036.55368438295;-0.000136566162109375;-1.17584228515625;70;1 mA;
-1.17416381835938;1036.76730738241;-0.000134735107421875;-1.17431640625;71;1 mA;
-1.173095703125;1036.98093038187;-0.0001324462890625;-1.1737060546875;72;1 mA;
-1.17202758789063;1037.19455338134;-0.000130462646484375;-1.17156982421875;73;1 mA;
-1.17095947265625;1037.4081763808;-0.000128692626953125;-1.17218017578125;74;1 mA;
-1.16989135742188;1037.62179938026;-0.00012628173828125;-1.17095947265625;75;1 mA;
-1.1688232421875;1037.83542237972;-0.000124420166015625;-1.17095947265625;76;1 mA;
-1.16775512695313;1038.04904537918;-0.000122833251953125;-1.168212890625;77;1 mA;
-1.16668701171875;1038.26266837864;-0.0001207275390625;-1.1663818359375;78;1 mA;
-1.16561889648438;1038.4762913781;-0.000118804931640625;-1.16668701171875;79;1 mA;
-1.16455078125;1038.68991437756;-0.0001175537109375;-1.16546630859375;80;1 mA;
-1.16348266601563;1038.90353737702;-0.000115509033203125;-1.1651611328125;81;1 mA;
-1.16241455078125;1039.11716037648;-0.00011383056640625;-1.1639404296875;82;1 mA;
-1.16134643554688;1039.33078337594;-0.000112335205078125;-1.1614990234375;83;1 mA;
-1.1602783203125;1039.5444063754;-0.000110626220703125;-1.16241455078125;84;1 mA;
-1.15921020507813;1039.75802937486;-0.00010882568359375;-1.16058349609375;85;1 mA;
-1.15814208984375;1039.97165237432;-0.0001075439453125;-1.15936279296875;86;1 mA;
-1.15707397460938;1040.18527537378;-0.00010601806640625;-1.15875244140625;87;1 mA;
-1.156005859375;1040.39889837325;-0.000104278564453125;-1.1566162109375;88;1 mA;
-1.15493774414063;1040.61252137271;-0.0001031494140625;-1.1553955078125;89;1 mA;
-1.15386962890625;1040.82614437217;-0.000101654052734375;-1.15570068359375;90;1 mA;
-1.15280151367188;1041.03976737163;-9.991455078125E-05;-1.15325927734375;91;1 mA;
-1.1517333984375;1041.25339037109;-9.8907470703125E-05;-1.15325927734375;92;1 mA;
-1.15066528320313;1041.46701337055;-9.7381591796875E-05;-1.15081787109375;93;1 mA;
-1.14959716796875;1041.68063637001;-9.5733642578125E-05;-1.1492919921875;94;1 mA;
-1.14852905273438;1041.89425936947;-9.4757080078125E-05;-1.148681640625;95;1 mA;
-1.1474609375;1042.10788236893;-9.3505859375E-05;-1.14898681640625;96;100 µA;
-1.14639282226563;1042.32150536839;-9.1766357421875E-05;-1.14715576171875;97;100 µA;
-1.14532470703125;1042.53512836785;-9.0789794921875E-05;-1.1444091796875;98;100 µA;
-1.14425659179688;1042.74875136731;-8.9691162109375E-05;-1.1444091796875;99;100 µA;
-1.1431884765625;1042.96237436677;-8.82568359375E-05;-1.14349365234375;100;100 µA;
-1.14212036132813;1043.17599736623;-8.7127685546875E-05;-1.1431884765625;101;100 µA;
-1.14105224609375;1043.38962036569;-8.612060546875E-05;-1.14044189453125;102;100 µA;
-1.13998413085938;1043.60324336516;-8.45947265625E-05;-1.13983154296875;103;100 µA;
-1.138916015625;1043.81686636462;-8.36181640625E-05;-1.13922119140625;104;100 µA;
-1.13784790039063;1044.03048936408;-8.2977294921875E-05;-1.1370849609375;105;100 µA;
-1.13677978515625;1044.24411236354;-8.1207275390625E-05;-1.13739013671875;106;100 µA;
-1.13571166992188;1044.457735363;-8.013916015625E-05;-1.1358642578125;107;100 µA;
-1.1346435546875;1044.67135836246;-7.9620361328125E-05;-1.1346435546875;108;100 µA;
-1.13357543945313;1044.88498136192;-7.80029296875E-05;-1.1346435546875;109;100 µA;
-1.13250732421875;1045.09860436138;-7.7056884765625E-05;-1.13311767578125;110;100 µA;
-1.13143920898438;1045.31222736084;-7.647705078125E-05;-1.13128662109375;111;100 µA;
-1.13037109375;1045.5258503603;-7.513427734375E-05;-1.131591796875;112;100 µA;
-1.12930297851563;1045.73947335976;-7.403564453125E-05;-1.13006591796875;113;100 µA;
-1.12823486328125;1045.95309635922;-7.3486328125E-05;-1.12823486328125;114;100 µA;
-1.12716674804688;1046.16671935868;-7.2265625E-05;-1.1273193359375;115;100 µA;
-1.1260986328125;1046.38034235814;-7.1258544921875E-05;-1.12518310546875;116;100 µA;
-1.12503051757813;1046.5939653576;-7.0831298828125E-05;-1.12579345703125;117;100 µA;
-1.12396240234375;1046.80758835707;-6.9580078125E-05;-1.12457275390625;118;100 µA;
-1.12289428710938;1047.02121135653;-6.87255859375E-05;-1.1236572265625;119;100 µA;
-1.121826171875;1047.23483435599;-6.8328857421875E-05;-1.12213134765625;120;100 µA;
-1.12075805664063;1047.44845735545;-6.72607421875E-05;-1.12152099609375;121;100 µA;
-1.11968994140625;1047.66208035491;-6.5948486328125E-05;-1.12030029296875;122;100 µA;
-1.11862182617188;1047.87570335437;-6.5948486328125E-05;-1.11907958984375;123;100 µA;
-1.1175537109375;1048.08932635383;-6.500244140625E-05;-1.1181640625;124;100 µA;
-1.11648559570313;1048.30294935329;-6.35986328125E-05;-1.116943359375;125;100 µA;
-1.11541748046875;1048.51657235275;-6.353759765625E-05;-1.11663818359375;126;100 µA;
-1.11434936523438;1048.73019535221;-6.280517578125E-05;-1.1151123046875;127;100 µA;
-1.11328125;1048.94381835167;-6.1553955078125E-05;-1.114501953125;128;100 µA;
-1.11221313476563;1049.15744135113;-6.1187744140625E-05;-1.11297607421875;129;100 µA;
-1.11114501953125;1049.37106435059;-6.0577392578125E-05;-1.11236572265625;130;100 µA;
-1.11007690429688;1049.58468735005;-5.938720703125E-05;-1.11083984375;131;100 µA;
-1.1090087890625;1049.79831034951;-5.902099609375E-05;-1.10992431640625;132;100 µA;
-1.10794067382813;1050.01193334897;-5.8837890625E-05;-1.10809326171875;133;100 µA;
-1.10687255859375;1050.22555634844;-5.7708740234375E-05;-1.10687255859375;134;100 µA;
-1.10580444335938;1050.4391793479;-5.743408203125E-05;-1.10626220703125;135;100 µA;
-1.104736328125;1050.65280234736;-5.67626953125E-05;-1.10626220703125;136;100 µA;
-1.10366821289063;1050.86642534682;-5.5694580078125E-05;-1.10504150390625;137;100 µA;
-1.10260009765625;1051.08004834628;-5.5145263671875E-05;-1.103515625;138;100 µA;
-1.10153198242188;1051.29367134574;-5.474853515625E-05;-1.1004638671875;139;100 µA;
-1.1004638671875;1051.5072943452;-5.3558349609375E-05;-1.10076904296875;140;100 µA;
-1.09939575195313;1051.72091734466;-5.31005859375E-05;-1.09954833984375;141;100 µA;
-1.09832763671875;1051.93454034412;-5.2978515625E-05;-1.09832763671875;142;100 µA;
-1.09725952148438;1052.14816334358;-5.18798828125E-05;-1.09771728515625;143;100 µA;
-1.09619140625;1052.36178634304;-5.1513671875E-05;-1.09710693359375;144;100 µA;
-1.09512329101563;1052.5754093425;-5.1361083984375E-05;-1.09619140625;145;100 µA;
-1.09405517578125;1052.78903234196;-5.047607421875E-05;-1.094970703125;146;100 µA;
-1.09298706054688;1053.00265534142;-4.9835205078125E-05;-1.09283447265625;147;100 µA;
-1.0919189453125;1053.21627834088;-4.974365234375E-05;-1.09161376953125;148;100 µA;
-1.09085083007813;1053.42990134035;-4.89501953125E-05;-1.09283447265625;149;100 µA;
-1.08978271484375;1053.64352433981;-4.840087890625E-05;-1.09130859375;150;100 µA;
-1.08871459960938;1053.85714733927;-4.833984375E-05;-1.08917236328125;151;100 µA;
-1.087646484375;1054.07077033873;-4.7698974609375E-05;-1.0870361328125;152;100 µA;
-1.08657836914063;1054.28439333819;-4.69970703125E-05;-1.08673095703125;153;100 µA;
-1.08551025390625;1054.49801633765;-4.6875E-05;-1.0870361328125;154;100 µA;
-1.08444213867188;1054.71163933711;-4.632568359375E-05;-1.08612060546875;155;100 µA;
-1.0833740234375;1054.92526233657;-4.5501708984375E-05;-1.083984375;156;100 µA;
-1.08230590820313;1055.13888533603;-4.5562744140625E-05;-1.082763671875;157;100 µA;
-1.08123779296875;1055.35250833549;-4.5135498046875E-05;-1.08245849609375;158;100 µA;
-1.08016967773438;1055.56613133495;-4.4158935546875E-05;-1.08123779296875;159;100 µA;
-1.0791015625;1055.77975433441;-4.4403076171875E-05;-1.08001708984375;160;100 µA;
-1.07803344726563;1055.99337733387;-4.388427734375E-05;-1.0784912109375;161;100 µA;
-1.07696533203125;1056.20700033333;-4.3060302734375E-05;-1.07666015625;162;100 µA;
-1.07589721679688;1056.42062333279;-4.315185546875E-05;-1.0772705078125;163;100 µA;
-1.0748291015625;1056.63424633225;-4.2816162109375E-05;-1.075439453125;164;100 µA;
-1.07376098632813;1056.84786933172;-4.19921875E-05;-1.07574462890625;165;100 µA;
-1.07269287109375;1057.06149233118;-4.1961669921875E-05;-1.072998046875;166;100 µA;
-1.07162475585938;1057.27511533064;-4.1717529296875E-05;-1.07147216796875;167;100 µA;
-1.070556640625;1057.4887383301;-4.0924072265625E-05;-1.07086181640625;168;100 µA;
-1.06948852539063;1057.70236132956;-4.083251953125E-05;-1.0693359375;169;100 µA;
-1.06842041015625;1057.91598432902;-4.0679931640625E-05;-1.06903076171875;170;100 µA;
-1.06735229492188;1058.12960732848;-3.9947509765625E-05;-1.068115234375;171;100 µA;
-1.0662841796875;1058.34323032794;-3.985595703125E-05;-1.06536865234375;172;100 µA;
-1.06521606445313;1058.5568533274;-3.9764404296875E-05;-1.06719970703125;173;100 µA;
-1.06414794921875;1058.77047632686;-3.887939453125E-05;-1.06536865234375;174;100 µA;
-1.06307983398438;1058.98409932632;-3.863525390625E-05;-1.06414794921875;175;100 µA;
-1.06201171875;1059.19772232578;-3.875732421875E-05;-1.0626220703125;176;100 µA;
-1.06094360351563;1059.41134532524;-3.790283203125E-05;-1.06170654296875;177;100 µA;
-1.05987548828125;1059.6249683247;-3.765869140625E-05;-1.06048583984375;178;100 µA;
-1.05880737304688;1059.83859132416;-3.77197265625E-05;-1.05987548828125;179;100 µA;
-1.0577392578125;1060.05221432363;-3.717041015625E-05;-1.05926513671875;180;100 µA;
-1.05667114257813;1060.26583732309;-3.6773681640625E-05;-1.05804443359375;181;100 µA;
-1.05560302734375;1060.47946032255;-3.6773681640625E-05;-1.05743408203125;182;100 µA;
-1.05453491210938;1060.69308332201;-3.6346435546875E-05;-1.0546875;183;100 µA;
-1.053466796875;1060.90670632147;-3.5919189453125E-05;-1.0546875;184;100 µA;
-1.05239868164063;1061.12032932093;-3.594970703125E-05;-1.05224609375;185;100 µA;
-1.05133056640625;1061.33395232039;-3.55224609375E-05;-1.05224609375;186;100 µA;
-1.05026245117188;1061.54757531985;-3.4881591796875E-05;-1.05010986328125;187;100 µA;
-1.0491943359375;1061.76119831931;-3.5186767578125E-05;-1.05010986328125;188;100 µA;
-1.04812622070313;1061.97482131877;-3.466796875E-05;-1.04949951171875;189;100 µA;
-1.04705810546875;1062.18844431823;-3.387451171875E-05;-1.04705810546875;190;100 µA;
-1.04598999023438;1062.40206731769;-3.4332275390625E-05;-1.04644775390625;191;100 µA;
-1.044921875;1062.61569031715;-3.4027099609375E-05;-1.04583740234375;192;100 µA;
-1.04385375976563;1062.82931331661;-3.3172607421875E-05;-1.04339599609375;193;100 µA;
-1.04278564453125;1063.04293631607;-3.338623046875E-05;-1.04217529296875;194;100 µA;
-1.04171752929688;1063.25655931554;-3.3203125E-05;-1.04156494140625;195;100 µA;
-1.0406494140625;1063.470182315;-3.2379150390625E-05;-1.0406494140625;196;100 µA;
-1.03958129882813;1063.68380531446;-3.2501220703125E-05;-1.04034423828125;197;100 µA;
-1.03851318359375;1063.89742831392;-3.2470703125E-05;-1.03851318359375;198;100 µA;
-1.03744506835938;1064.11105131338;-3.1707763671875E-05;-1.03759765625;199;100 µA;
-1.036376953125;1064.32467431284;-3.1829833984375E-05;-1.036376953125;200;100 µA;
-1.03530883789063;1064.5382973123;-3.1829833984375E-05;-1.0357666015625;201;100 µA;
-1.03424072265625;1064.75192031176;-3.1280517578125E-05;-1.0357666015625;202;100 µA;
-1.03317260742188;1064.96554331122;-3.1036376953125E-05;-1.03363037109375;203;100 µA;
-1.0321044921875;1065.17916631068;-3.1219482421875E-05;-1.03302001953125;204;100 µA;
-1.03103637695313;1065.39278931014;-3.033447265625E-05;-1.03118896484375;205;100 µA;
-1.02996826171875;1065.6064123096;-3.0487060546875E-05;-1.02996826171875;206;100 µA;
-1.02890014648438;1065.82003530906;-3.06396484375E-05;-1.0284423828125;207;100 µA;
-1.02783203125;1066.03365830852;-2.9937744140625E-05;-1.02935791015625;208;100 µA;
-1.02676391601563;1066.24728130798;-2.9754638671875E-05;-1.02783203125;209;100 µA;
-1.02569580078125;1066.46090430745;-2.972412109375E-05;-1.02569580078125;210;100 µA;
-1.02462768554688;1066.67452730691;-2.923583984375E-05;-1.02630615234375;211;100 µA;
-1.0235595703125;1066.88815030637;-2.923583984375E-05;-1.02508544921875;212;100 µA;
-1.02249145507813;1067.10177330583;-2.9205322265625E-05;-1.0235595703125;213;100 µA;
-1.02142333984375;1067.31539630529;-2.886962890625E-05;-1.02203369140625;214;100 µA;
-1.02035522460938;1067.52901930475;-2.838134765625E-05;-1.02142333984375;215;100 µA;
-1.019287109375;1067.74264230421;-2.874755859375E-05;-1.02081298828125;216;100 µA;
-1.01821899414063;1067.95626530367;-2.8106689453125E-05;-1.01837158203125;217;100 µA;
-1.01715087890625;1068.16988830313;-2.7740478515625E-05;-1.01654052734375;218;100 µA;
-1.01608276367188;1068.38351130259;-2.7862548828125E-05;-1.01654052734375;219;100 µA;
-1.0150146484375;1068.59713430205;-2.77099609375E-05;-1.0174560546875;220;100 µA;
-1.01394653320313;1068.81075730151;-2.7130126953125E-05;-1.01409912109375;221;100 µA;
-1.01287841796875;1069.02438030097;-2.728271484375E-05;-1.01318359375;222;100 µA;
-1.01181030273438;1069.23800330043;-2.691650390625E-05;-1.01287841796875;223;100 µA;
-1.0107421875;1069.45162629989;-2.618408203125E-05;-1.01165771484375;224;100 µA;
-1.00967407226563;1069.66524929935;-2.6641845703125E-05;-1.01043701171875;225;100 µA;
-1.00860595703125;1069.87887229882;-2.6397705078125E-05;-1.01043701171875;226;100 µA;
-1.00753784179688;1070.09249529828;-2.5665283203125E-05;-1.0089111328125;227;100 µA;
-1.0064697265625;1070.30611829774;-2.6031494140625E-05;-1.00677490234375;228;100 µA;
-1.00540161132813;1070.5197412972;-2.581787109375E-05;-1.0052490234375;229;100 µA;
-1.00433349609375;1070.73336429666;-2.5115966796875E-05;-1.0052490234375;230;100 µA;
-1.00326538085938;1070.94698729612;-2.532958984375E-05;-1.0040283203125;231;100 µA;
-1.002197265625;1071.16061029558;-2.5238037109375E-05;-1.00250244140625;232;100 µA;
-1.00112915039063;1071.37423329504;-2.47802734375E-05;-1.00189208984375;233;100 µA;
-1.00006103515625;1071.5878562945;-2.4749755859375E-05;-1.0009765625;234;100 µA;
-0.998992919921875;1071.80147929396;-2.4627685546875E-05;-0.99945068359375;235;100 µA;
-0.9979248046875;1072.01510229342;-2.423095703125E-05;-0.99853515625;236;100 µA;
-0.996856689453125;1072.22872529288;-2.4169921875E-05;-0.99822998046875;237;100 µA;
-0.99578857421875;1072.44234829234;-2.4139404296875E-05;-0.99639892578125;238;100 µA;
-0.994720458984375;1072.6559712918;-2.349853515625E-05;-0.99456787109375;239;100 µA;
-0.99365234375;1072.86959429126;-2.3468017578125E-05;-0.99517822265625;240;100 µA;
-0.992584228515625;1073.08321729073;-2.3681640625E-05;-0.99365234375;241;100 µA;
-0.99151611328125;1073.29684029019;-2.301025390625E-05;-0.99212646484375;242;100 µA;
-0.990447998046875;1073.51046328965;-2.2857666015625E-05;-0.99090576171875;243;100 µA;
-0.9893798828125;1073.72408628911;-2.3040771484375E-05;-0.99090576171875;244;100 µA;
-0.988311767578125;1073.93770928857;-2.2369384765625E-05;-0.98968505859375;245;100 µA;
-0.98724365234375;1074.15133228803;-2.2186279296875E-05;-0.98785400390625;246;100 µA;
-0.986175537109375;1074.36495528749;-2.2430419921875E-05;-0.986328125;247;100 µA;
-0.985107421875;1074.57857828695;-2.197265625E-05;-0.98541259765625;248;100 µA;
-0.984039306640625;1074.79220128641;-2.166748046875E-05;-0.98480224609375;249;100 µA;
-0.98297119140625;1075.00582428587;-2.1759033203125E-05;-0.98388671875;250;100 µA;
-0.981903076171875;1075.21944728533;-2.1331787109375E-05;-0.98052978515625;251;100 µA;
-0.9808349609375;1075.43307028479;-2.11181640625E-05;-0.9820556640625;252;100 µA;
-0.979766845703125;1075.64669328425;-2.117919921875E-05;-0.98175048828125;253;100 µA;
-0.97869873046875;1075.86031628371;-2.1087646484375E-05;-0.97869873046875;254;100 µA;
-0.977630615234375;1076.07393928317;-2.0416259765625E-05;-0.97747802734375;255;100 µA;
-0.9765625;1076.28756228264;-2.0965576171875E-05;-0.97747802734375;256;100 µA;
-0.975494384765625;1076.5011852821;-2.001953125E-05;-0.9747314453125;257;100 µA;
-0.97442626953125;1076.71480828156;-1.983642578125E-05;-0.9747314453125;258;100 µA;
-0.973358154296875;1076.92843128102;-1.9866943359375E-05;-0.97320556640625;259;100 µA;
-0.9722900390625;1077.14205428048;-1.9683837890625E-05;-0.97320556640625;260;100 µA;
-0.971221923828125;1077.35567727994;-1.910400390625E-05;-0.9722900390625;261;100 µA;
-0.97015380859375;1077.5693002794;-1.934814453125E-05;-0.96954345703125;262;100 µA;
-0.969085693359375;1077.78292327886;-1.9134521484375E-05;-0.96954345703125;263;100 µA;
-0.968017578125;1077.99654627832;-1.8402099609375E-05;-0.96893310546875;264;100 µA;
-0.966949462890625;1078.21016927778;-1.8646240234375E-05;-0.96771240234375;265;100 µA;
-0.96588134765625;1078.42379227724;-1.8524169921875E-05;-0.966796875;266;100 µA;
-0.964813232421875;1078.6374152767;-1.7791748046875E-05;-0.965576171875;267;100 µA;
-0.9637451171875;1078.85103827616;-1.800537109375E-05;-0.96466064453125;268;100 µA;
-0.962677001953125;1079.06466127562;-1.7852783203125E-05;-0.96282958984375;269;100 µA;
-0.96160888671875;1079.27828427508;-1.739501953125E-05;-0.9625244140625;270;100 µA;
-0.960540771484375;1079.49190727454;-1.7578125E-05;-0.96160888671875;271;100 µA;
-0.95947265625;1079.70553027401;-1.7730712890625E-05;-0.9600830078125;272;100 µA;
-0.958404541015625;1079.91915327347;-1.702880859375E-05;-0.95916748046875;273;100 µA;
-0.95733642578125;1080.13277627293;-1.690673828125E-05;-0.95703125;274;100 µA;
-0.956268310546875;1080.34639927239;-1.6937255859375E-05;-0.9564208984375;275;100 µA;
-0.9552001953125;1080.56002227185;-1.6387939453125E-05;-0.9552001953125;276;100 µA;
-0.954132080078125;1080.77364527131;-1.6082763671875E-05;-0.95428466796875;277;100 µA;
-0.95306396484375;1080.98726827077;-1.6326904296875E-05;-0.95367431640625;278;100 µA;
-0.951995849609375;1081.20089127023;-1.580810546875E-05;-0.95184326171875;279;100 µA;
-0.950927734375;1081.41451426969;-1.556396484375E-05;-0.95184326171875;280;100 µA;
-0.949859619140625;1081.62813726915;-1.57470703125E-05;-0.95062255859375;281;100 µA;
-0.94879150390625;1081.84176026861;-1.5289306640625E-05;-0.948486328125;282;100 µA;
-0.947723388671875;1082.05538326807;-1.507568359375E-05;-0.948486328125;283;100 µA;
-0.9466552734375;1082.26900626753;-1.5228271484375E-05;-0.9478759765625;284;100 µA;
-0.945587158203125;1082.48262926699;-1.4801025390625E-05;-0.947265625;285;100 µA;
-0.94451904296875;1082.69625226645;-1.4404296875E-05;-0.9454345703125;286;100 µA;
-0.943450927734375;1082.90987526592;-1.46484375E-05;-0.94390869140625;287;100 µA;
-0.9423828125;1083.12349826538;-1.446533203125E-05;-0.943603515625;288;100 µA;
-0.941314697265625;1083.33712126484;-1.3885498046875E-05;-0.94329833984375;289;100 µA;
-0.94024658203125;1083.5507442643;-1.422119140625E-05;-0.9405517578125;290;100 µA;
-0.939178466796875;1083.76436726376;-1.42425537109375E-05;-0.93963623046875;291;100 µA;
-0.9381103515625;1083.97799026322;-1.3739013671875E-05;-0.938720703125;292;100 µA;
-0.937042236328125;1084.19161326268;-1.39556884765625E-05;-0.93780517578125;293;100 µA;
-0.93597412109375;1084.40523626214;-1.3861083984375E-05;-0.9375;294;100 µA;
-0.934906005859375;1084.6188592616;-1.312255859375E-05;-0.9356689453125;295;100 µA;
-0.933837890625;1084.83248226106;-1.34918212890625E-05;-0.93536376953125;296;100 µA;
-0.932769775390625;1085.04610526052;-1.34429931640625E-05;-0.93475341796875;297;100 µA;
-0.93170166015625;1085.25972825998;-1.2982177734375E-05;-0.93475341796875;298;100 µA;
-0.930633544921875;1085.47335125944;-1.3055419921875E-05;-0.9320068359375;299;100 µA;
-0.9295654296875;1085.6869742589;-1.31805419921875E-05;-0.93048095703125;300;100 µA;
-0.928497314453125;1085.90059725836;-1.25640869140625E-05;-0.9295654296875;301;100 µA;
-0.92742919921875;1086.11422025783;-1.2359619140625E-05;-0.92864990234375;302;100 µA;
-0.926361083984375;1086.32784325729;-1.279296875E-05;-0.9271240234375;303;100 µA;
-0.92529296875;1086.54146625675;-1.21917724609375E-05;-0.92620849609375;304;100 µA;
-0.924224853515625;1086.75508925621;-1.20880126953125E-05;-0.926513671875;305;100 µA;
-0.92315673828125;1086.96871225567;-1.23870849609375E-05;-0.92498779296875;306;100 µA;
-0.922088623046875;1087.18233525513;-1.1834716796875E-05;-0.9228515625;307;100 µA;
-0.9210205078125;1087.39595825459;-1.1737060546875E-05;-0.9210205078125;308;100 µA;
-0.919952392578125;1087.60958125405;-1.1859130859375E-05;-0.92010498046875;309;100 µA;
-0.91888427734375;1087.82320425351;-1.15203857421875E-05;-0.92010498046875;310;100 µA;
-0.917816162109375;1088.03682725297;-1.13555908203125E-05;-0.91827392578125;311;100 µA;
-0.916748046875;1088.25045025243;-1.153564453125E-05;-0.9185791015625;312;100 µA;
-0.915679931640625;1088.46407325189;-1.12091064453125E-05;-0.91644287109375;313;100 µA;
-0.91461181640625;1088.67769625135;-1.0760498046875E-05;-0.91461181640625;314;100 µA;
-0.913543701171875;1088.89131925081;-1.10931396484375E-05;-0.9136962890625;315;100 µA;
-0.9124755859375;1089.10494225027;-1.09710693359375E-05;-0.91156005859375;316;100 µA;
-0.911407470703125;1089.31856524974;-1.03790283203125E-05;-0.91278076171875;317;100 µA;
-0.91033935546875;1089.5321882492;-1.07086181640625E-05;-0.90972900390625;318;100 µA;
-0.909271240234375;1089.74581124866;-1.05499267578125E-05;-0.91064453125;319;100 µA;
-0.908203125;1089.95943424812;-1.00860595703125E-05;-0.9100341796875;320;100 µA;
-0.907135009765625;1090.17305724758;-1.01348876953125E-05;-0.9100341796875;321;100 µA;
-0.90606689453125;1090.38668024704;-1.014404296875E-05;-0.906982421875;322;100 µA;
-0.904998779296875;1090.6003032465;-9.7442626953125E-06;-0.90667724609375;323;100 µA;
-0.9039306640625;1090.81392624596;-9.82666015625E-06;-0.90484619140625;324;100 µA;
-0.902862548828125;1091.02754924542;-9.8724365234375E-06;-0.904541015625;325;100 µA;
-0.90179443359375;1091.24117224488;-9.3841552734375E-06;-0.90179443359375;326;100 µA;
-0.900726318359375;1091.45479524434;-9.3017578125E-06;-0.902099609375;327;100 µA;
-0.899658203125;1091.6684182438;-1.01654052734375E-05;-0.9002685546875;328;10 µA;
-0.898590087890625;1091.88204124326;-9.2376708984375E-06;-0.89935302734375;329;10 µA;
-0.89752197265625;1092.09566424272;-9.1400146484375E-06;-0.8984375;330;10 µA;
-0.896453857421875;1092.30928724218;-9.765625E-06;-0.897216796875;331;10 µA;
-0.8953857421875;1092.52291024164;-8.984375E-06;-0.8966064453125;332;10 µA;
-0.894317626953125;1092.73653324111;-8.7921142578125E-06;-0.89447021484375;333;10 µA;
-0.89324951171875;1092.95015624057;-9.2864990234375E-06;-0.8935546875;334;10 µA;
-0.892181396484375;1093.16377924003;-8.7188720703125E-06;-0.89324951171875;335;10 µA;
-0.89111328125;1093.37740223949;-8.544921875E-06;-0.89202880859375;336;10 µA;
-0.890045166015625;1093.59102523895;-8.868408203125E-06;-0.89111328125;337;10 µA;
-0.88897705078125;1093.80464823841;-8.575439453125E-06;-0.88958740234375;338;10 µA;
-0.887908935546875;1094.01827123787;-7.904052734375E-06;-0.8880615234375;339;10 µA;
-0.8868408203125;1094.23189423733;-8.526611328125E-06;-0.88775634765625;340;10 µA;
-0.885772705078125;1094.44551723679;-8.319091796875E-06;-0.88623046875;341;10 µA;
-0.88470458984375;1094.65914023625;-7.6446533203125E-06;-0.88531494140625;342;10 µA;
-0.883636474609375;1094.87276323571;-8.0322265625E-06;-0.8843994140625;343;10 µA;
-0.882568359375;1095.08638623517;-8.19091796875E-06;-0.88409423828125;344;10 µA;
-0.881500244140625;1095.30000923463;-7.4493408203125E-06;-0.88226318359375;345;10 µA;
-0.88043212890625;1095.51363223409;-7.72705078125E-06;-0.8807373046875;346;10 µA;
-0.879364013671875;1095.72725523355;-7.7301025390625E-06;-0.87982177734375;347;10 µA;
-0.8782958984375;1095.94087823302;-7.3944091796875E-06;-0.87860107421875;348;10 µA;
-0.877227783203125;1096.15450123248;-7.32421875E-06;-0.87799072265625;349;10 µA;
-0.87615966796875;1096.36812423194;-7.806396484375E-06;-0.87677001953125;350;10 µA;
-0.875091552734375;1096.5817472314;-6.903076171875E-06;-0.8758544921875;351;10 µA;
-0.8740234375;1096.79537023086;-6.7901611328125E-06;-0.87493896484375;352;10 µA;
-0.872955322265625;1097.00899323032;-7.305908203125E-06;-0.872802734375;353;10 µA;
-0.87188720703125;1097.22261622978;-6.6986083984375E-06;-0.87158203125;354;10 µA;
-0.870819091796875;1097.43623922924;-6.402587890625E-06;-0.87249755859375;355;10 µA;
-0.8697509765625;1097.6498622287;-6.9793701171875E-06;-0.87005615234375;356;10 µA;
-0.868682861328125;1097.86348522816;-6.4117431640625E-06;-0.869140625;357;10 µA;
-0.86761474609375;1098.07710822762;-6.14013671875E-06;-0.8673095703125;358;10 µA;
-0.866546630859375;1098.29073122708;-6.4849853515625E-06;-0.86883544921875;359;10 µA;
-0.865478515625;1098.50435422654;-6.1859130859375E-06;-0.86761474609375;360;10 µA;
-0.864410400390625;1098.717977226;-5.5145263671875E-06;-0.86517333984375;361;10 µA;
-0.86334228515625;1098.93160022546;-6.231689453125E-06;-0.8642578125;362;10 µA;
-0.862274169921875;1099.14522322493;-6.0577392578125E-06;-0.863037109375;363;10 µA;
-0.8612060546875;1099.35884622439;-5.2642822265625E-06;-0.86334228515625;364;10 µA;
-0.860137939453125;1099.57246922385;-5.7281494140625E-06;-0.86090087890625;365;10 µA;
-0.85906982421875;1099.78609222331;-5.7464599609375E-06;-0.859375;366;10 µA;
-0.858001708984375;1099.99971522277;-5.0506591796875E-06;-0.85906982421875;367;10 µA;
-0.85693359375;1100.21333822223;-5.2734375E-06;-0.85845947265625;368;10 µA;
-0.855865478515625;1100.42696122169;-5.2764892578125E-06;-0.855712890625;369;10 µA;
-0.85479736328125;1100.64058422115;-4.72412109375E-06;-0.85540771484375;370;10 µA;
-0.853729248046875;1100.85420722061;-4.77294921875E-06;-0.85357666015625;371;10 µA;
-0.8526611328125;1101.06783022007;-5.2398681640625E-06;-0.85357666015625;372;10 µA;
-0.851593017578125;1101.28145321953;-4.2205810546875E-06;-0.85235595703125;373;10 µA;
-0.85052490234375;1101.49507621899;-4.2022705078125E-06;-0.85113525390625;374;10 µA;
-0.849456787109375;1101.70869921845;-4.815673828125E-06;-0.849609375;375;10 µA;
-0.848388671875;1101.92232221791;-3.9093017578125E-06;-0.849609375;376;10 µA;
-0.847320556640625;1102.13594521737;-3.741455078125E-06;-0.84808349609375;377;10 µA;
-0.84625244140625;1102.34956821684;-4.2083740234375E-06;-0.84564208984375;378;10 µA;
-0.845184326171875;1102.5631912163;-3.6224365234375E-06;-0.8447265625;379;10 µA;
-0.8441162109375;1102.77681421576;-3.4454345703125E-06;-0.84564208984375;380;10 µA;
-0.843048095703125;1102.99043721522;-3.6773681640625E-06;-0.8441162109375;381;10 µA;
-0.84197998046875;1103.20406021468;-3.3477783203125E-06;-0.84259033203125;382;10 µA;
-0.840911865234375;1103.41768321414;-2.7435302734375E-06;-0.841064453125;383;10 µA;
-0.83984375;1103.6313062136;-3.302001953125E-06;-0.84075927734375;384;10 µA;
-0.838775634765625;1103.84492921306;-3.03955078125E-06;-0.83953857421875;385;10 µA;
-0.83770751953125;1104.05855221252;-2.20947265625E-06;-0.83892822265625;386;10 µA;
-0.836639404296875;1104.27217521198;-2.7099609375E-06;-0.83709716796875;387;10 µA;
-0.8355712890625;1104.48579821144;-2.7252197265625E-06;-0.83648681640625;388;10 µA;
-0.834503173828125;1104.6994212109;-1.8646240234375E-06;-0.8355712890625;389;10 µA;
-0.83343505859375;1104.91304421036;-2.1148681640625E-06;-0.8349609375;390;10 µA;
-0.832366943359375;1105.12666720982;-2.1575927734375E-06;-0.8343505859375;391;10 µA;
-0.831298828125;1105.34029020928;-1.4739990234375E-06;-0.83221435546875;392;10 µA;
-0.830230712890625;1105.55391320874;-1.6876220703125E-06;-0.83038330078125;393;10 µA;
-0.82916259765625;1105.76753620821;-1.9683837890625E-06;-0.82977294921875;394;10 µA;
-0.828094482421875;1105.98115920767;-9.552001953125E-07;-0.828857421875;395;10 µA;
-0.8270263671875;1106.19478220713;-9.21630859375E-07;-0.82855224609375;396;10 µA;
-0.825958251953125;1106.40840520659;-1.4617919921875E-06;-0.82763671875;397;10 µA;
-0.82489013671875;1106.62202820605;-5.828857421875E-07;-0.82611083984375;398;10 µA;
-0.823822021484375;1106.83565120551;-3.47900390625E-07;-0.82489013671875;399;10 µA;
-0.82275390625;1107.04927420497;-9.246826171875E-07;-0.8251953125;400;10 µA;
-0.821685791015625;1107.26289720443;-3.0517578125E-07;-0.82122802734375;401;10 µA;
-0.82061767578125;1107.47652020389;6.7138671875E-08;-0.821533203125;402;10 µA;
-0.819549560546875;1107.69014320335;-1.6326904296875E-07;-0.821533203125;403;1 µA;
-0.8184814453125;1107.90376620281;3.3416748046875E-07;-0.81817626953125;404;1 µA;
-0.817413330078125;1108.11738920227;4.510498046875E-07;-0.81756591796875;405;1 µA;
-0.81634521484375;1108.33101220173;1.6143798828125E-07;-0.81634521484375;406;1 µA;
-0.815277099609375;1108.54463520119;5.2337646484375E-07;-0.81390380859375;407;1 µA;
-0.814208984375;1108.75825820065;7.23876953125E-07;-0.81451416015625;408;1 µA;
-0.813140869140625;1108.97188120012;4.9468994140625E-07;-0.81329345703125;409;1 µA;
-0.81207275390625;1109.18550419958;6.4727783203125E-07;-0.81207275390625;410;1 µA;
-0.811004638671875;1109.39912719904;1.06201171875E-06;-0.81085205078125;411;1 µA;
-0.8099365234375;1109.6127501985;8.3038330078125E-07;-0.81085205078125;412;1 µA;
-0.808868408203125;1109.82637319796;9.7442626953125E-07;-0.81146240234375;413;1 µA;
-0.80780029296875;1110.03999619742;1.3946533203125E-06;-0.80841064453125;414;1 µA;
-0.806732177734375;1110.25361919688;1.15203857421875E-06;-0.80810546875;415;1 µA;
-0.8056640625;1110.46724219634;1.279296875E-06;-0.80657958984375;416;1 µA;
-0.804595947265625;1110.6808651958;1.76605224609375E-06;-0.8056640625;417;1 µA;
-0.80352783203125;1110.89448819526;1.46636962890625E-06;-0.8038330078125;418;1 µA;
-0.802459716796875;1111.10811119472;1.600341796875E-06;-0.80291748046875;419;1 µA;
-0.8013916015625;1111.32173419418;2.03460693359375E-06;-0.8013916015625;420;1 µA;
-0.800323486328125;1111.53535719364;1.876220703125E-06;-0.8013916015625;421;1 µA;
-0.79925537109375;1111.7489801931;1.97906494140625E-06;-0.79986572265625;422;1 µA;
-0.798187255859375;1111.96260319256;2.4365234375E-06;-0.7989501953125;423;1 µA;
-0.797119140625;1112.17622619202;2.310791015625E-06;-0.7977294921875;424;1 µA;
-0.796051025390625;1112.38984919149;2.2833251953125E-06;-0.7958984375;425;1 µA;
-0.79498291015625;1112.60347219095;2.67547607421875E-06;-0.7958984375;426;1 µA;
-0.793914794921875;1112.81709519041;2.76397705078125E-06;-0.7952880859375;427;1 µA;
-0.7928466796875;1113.03071818987;2.646484375E-06;-0.79315185546875;428;1 µA;
-0.791778564453125;1113.24434118933;2.9364013671875E-06;-0.7916259765625;429;1 µA;
-0.79071044921875;1113.45796418879;3.2244873046875E-06;-0.79132080078125;430;1 µA;
-0.789642333984375;1113.67158718825;3.0633544921875E-06;-0.7916259765625;431;1 µA;
-0.78857421875;1113.88521018771;3.1744384765625E-06;-0.78948974609375;432;1 µA;
-0.787506103515625;1114.09883318717;3.695068359375E-06;-0.7867431640625;433;1 µA;
-0.78643798828125;1114.31245618663;3.43780517578125E-06;-0.78704833984375;434;1 µA;
-0.785369873046875;1114.52607918609;3.59405517578125E-06;-0.7855224609375;435;1 µA;
-0.7843017578125;1114.73970218555;4.058837890625E-06;-0.78521728515625;436;1 µA;
-0.783233642578125;1114.95332518501;7.2174072265625E-06;-0.78338623046875;437;10 µA;
-0.78216552734375;1115.16694818447;7.06787109375E-06;-0.7818603515625;438;10 µA;
-0.781097412109375;1115.38057118393;7.977294921875E-06;-0.78094482421875;439;10 µA;
-0.780029296875;1115.5941941834;7.9010009765625E-06;-0.78155517578125;440;10 µA;
-0.778961181640625;1115.80781718286;7.6080322265625E-06;-0.7806396484375;441;10 µA;
-0.77789306640625;1116.02144018232;8.7127685546875E-06;-0.77850341796875;442;10 µA;
-0.776824951171875;1116.23506318178;8.7921142578125E-06;-0.77728271484375;443;10 µA;
-0.7757568359375;1116.44868618124;8.2855224609375E-06;-0.7763671875;444;10 µA;
-0.774688720703125;1116.6623091807;9.2376708984375E-06;-0.7769775390625;445;10 µA;
-0.77362060546875;1116.87593218016;9.5489501953125E-06;-0.77362060546875;446;10 µA;
-0.772552490234375;1117.08955517962;9.2132568359375E-06;-0.77301025390625;447;10 µA;
-0.771484375;1117.30317817908;9.814453125E-06;-0.7720947265625;448;10 µA;
-0.770416259765625;1117.51680117854;1.02264404296875E-05;-0.7720947265625;449;10 µA;
-0.76934814453125;1117.730424178;1.0052490234375E-05;-0.770263671875;450;10 µA;
-0.768280029296875;1117.94404717746;1.05438232421875E-05;-0.7684326171875;451;10 µA;
-0.7672119140625;1118.15767017692;1.12884521484375E-05;-0.76873779296875;452;10 µA;
-0.766143798828125;1118.37129317638;1.07879638671875E-05;-0.7666015625;453;10 µA;
-0.76507568359375;1118.58491617584;1.10870361328125E-05;-0.765380859375;454;10 µA;
-0.764007568359375;1118.79853917531;1.21368408203125E-05;-0.76568603515625;455;10 µA;
-0.762939453125;1119.01216217477;1.17279052734375E-05;-0.76324462890625;456;10 µA;
-0.761871337890625;1119.22578517423;1.19140625E-05;-0.7623291015625;457;10 µA;
-0.76080322265625;1119.43940817369;1.2872314453125E-05;-0.76141357421875;458;10 µA;
-0.759735107421875;1119.65303117315;1.2774658203125E-05;-0.760498046875;459;10 µA;
-0.7586669921875;1119.86665417261;1.2908935546875E-05;-0.75927734375;460;10 µA;
-0.757598876953125;1120.08027717207;1.36016845703125E-05;-0.75775146484375;461;10 µA;
-0.75653076171875;1120.29390017153;1.3775634765625E-05;-0.758056640625;462;10 µA;
-0.755462646484375;1120.50752317099;1.35711669921875E-05;-0.75714111328125;463;10 µA;
-0.75439453125;1120.72114617045;1.429443359375E-05;-0.75469970703125;464;10 µA;
-0.753326416015625;1120.93476916991;1.4630126953125E-05;-0.7537841796875;465;10 µA;
-0.75225830078125;1121.14839216937;1.4013671875E-05;-0.753173828125;466;10 µA;
-0.751190185546875;1121.36201516883;1.49139404296875E-05;-0.75225830078125;467;10 µA;
-0.7501220703125;1121.57563816829;1.51214599609375E-05;-0.75103759765625;468;10 µA;
-0.749053955078125;1121.78926116775;1.50146484375E-05;-0.748870849609375;469;10 µA;
-0.74798583984375;1122.00288416722;1.580810546875E-05;-0.7474365234375;470;10 µA;
-0.746917724609375;1122.21650716668;1.61102294921875E-05;-0.746734619140625;471;10 µA;
-0.745849609375;1122.43013016614;1.61102294921875E-05;-0.745697021484375;472;10 µA;
-0.744781494140625;1122.6437531656;1.67572021484375E-05;-0.74462890625;473;10 µA;
-0.74371337890625;1122.85737616506;1.73583984375E-05;-0.743988037109375;474;10 µA;
-0.742645263671875;1123.07099916452;1.71661376953125E-05;-0.742156982421875;475;10 µA;
-0.7415771484375;1123.28462216398;1.78863525390625E-05;-0.741546630859375;476;10 µA;
-0.740509033203125;1123.49824516344;1.84112548828125E-05;-0.739837646484375;477;10 µA;
-0.73944091796875;1123.7118681629;1.82769775390625E-05;-0.740020751953125;478;10 µA;
-0.738372802734375;1123.92549116236;1.8896484375E-05;-0.737884521484375;479;10 µA;
-0.7373046875;1124.13911416182;1.97906494140625E-05;-0.73760986328125;480;10 µA;
-0.736236572265625;1124.35273716128;1.937255859375E-05;-0.736175537109375;481;10 µA;
-0.73516845703125;1124.56636016074;1.9757080078125E-05;-0.73455810546875;482;10 µA;
-0.734100341796875;1124.7799831602;2.09747314453125E-05;-0.733978271484375;483;10 µA;
-0.7330322265625;1124.99360615966;2.06939697265625E-05;-0.7327880859375;484;10 µA;
-0.731964111328125;1125.20722915912;2.10723876953125E-05;-0.730499267578125;485;10 µA;
-0.73089599609375;1125.42085215859;2.19696044921875E-05;-0.7314453125;486;10 µA;
-0.729827880859375;1125.63447515805;2.18963623046875E-05;-0.728973388671875;487;10 µA;
-0.728759765625;1125.84809815751;2.24212646484375E-05;-0.727874755859375;488;10 µA;
-0.727691650390625;1126.06172115697;2.3046875E-05;-0.726898193359375;489;10 µA;
-0.72662353515625;1126.27534415643;2.33642578125E-05;-0.725799560546875;490;10 µA;
-0.725555419921875;1126.48896715589;2.35992431640625E-05;-0.72491455078125;491;10 µA;
-0.7244873046875;1126.70259015535;2.41912841796875E-05;-0.725189208984375;492;10 µA;
-0.723419189453125;1126.91621315481;2.47314453125E-05;-0.72296142578125;493;10 µA;
-0.72235107421875;1127.12983615427;2.4578857421875E-05;-0.72247314453125;494;10 µA;
-0.721282958984375;1127.34345915373;2.61932373046875E-05;-0.721343994140625;495;10 µA;
-0.72021484375;1127.55708215319;2.62237548828125E-05;-0.720184326171875;496;10 µA;
-0.719146728515625;1127.77070515265;2.60711669921875E-05;-0.718414306640625;497;10 µA;
-0.71807861328125;1127.98432815211;2.70538330078125E-05;-0.718414306640625;498;10 µA;
-0.717010498046875;1128.19795115157;2.78839111328125E-05;-0.716278076171875;499;10 µA;
-0.7159423828125;1128.41157415103;2.72735595703125E-05;-0.7156982421875;500;10 µA;
-0.714874267578125;1128.6251971505;2.83538818359375E-05;-0.714813232421875;501;10 µA;
-0.71380615234375;1128.83882014996;2.88299560546875E-05;-0.713897705078125;502;10 µA;
-0.712738037109375;1129.05244314942;2.85003662109375E-05;-0.7125244140625;503;10 µA;
-0.711669921875;1129.26606614888;2.95135498046875E-05;-0.710662841796875;504;10 µA;
-0.710601806640625;1129.47968914834;3.02703857421875E-05;-0.710296630859375;505;10 µA;
-0.70953369140625;1129.6933121478;3.03253173828125E-05;-0.709259033203125;506;10 µA;
-0.708465576171875;1129.90693514726;3.1231689453125E-05;-0.709716796875;507;10 µA;
-0.7073974609375;1130.12055814672;3.22174072265625E-05;-0.707244873046875;508;10 µA;
-0.706329345703125;1130.33418114618;3.22113037109375E-05;-0.70526123046875;509;10 µA;
-0.70526123046875;1130.54780414564;3.3013916015625E-05;-0.703826904296875;510;10 µA;
-0.704193115234375;1130.7614271451;3.40057373046875E-05;-0.704071044921875;511;10 µA;
-0.703125;1130.97505014456;3.39508056640625E-05;-0.7032470703125;512;10 µA;
-0.702056884765625;1131.18867314402;3.49395751953125E-05;-0.701141357421875;513;10 µA;
-0.70098876953125;1131.40229614348;3.60260009765625E-05;-0.700775146484375;514;10 µA;
-0.699920654296875;1131.61591914294;3.59344482421875E-05;-0.6988525390625;515;10 µA;
-0.6988525390625;1131.82954214241;3.663330078125E-05;-0.69891357421875;516;10 µA;
-0.697784423828125;1132.04316514187;3.8201904296875E-05;-0.69775390625;517;10 µA;
-0.69671630859375;1132.25678814133;3.82720947265625E-05;-0.695770263671875;518;10 µA;
-0.695648193359375;1132.47041114079;3.892822265625E-05;-0.696014404296875;519;10 µA;
-0.694580078125;1132.68403414025;4.02191162109375E-05;-0.69451904296875;520;10 µA;
-0.693511962890625;1132.89765713971;4.04052734375E-05;-0.692901611328125;521;100 µA;
-0.69244384765625;1133.11128013917;4.1168212890625E-05;-0.691253662109375;522;100 µA;
-0.691375732421875;1133.32490313863;4.23583984375E-05;-0.690643310546875;523;100 µA;
-0.6903076171875;1133.53852613809;4.290771484375E-05;-0.68951416015625;524;100 µA;
-0.689239501953125;1133.75214913755;4.3487548828125E-05;-0.68975830078125;525;100 µA;
-0.68817138671875;1133.96577213701;4.4677734375E-05;-0.68798828125;526;100 µA;
-0.687103271484375;1134.17939513647;4.534912109375E-05;-0.68670654296875;527;100 µA;
-0.68603515625;1134.39301813593;4.5379638671875E-05;-0.686248779296875;528;100 µA;
-0.684967041015625;1134.60664113539;4.7149658203125E-05;-0.68487548828125;529;100 µA;
-0.68389892578125;1134.82026413485;4.7698974609375E-05;-0.684112548828125;530;100 µA;
-0.682830810546875;1135.03388713431;4.803466796875E-05;-0.682159423828125;531;100 µA;
-0.6817626953125;1135.24751013378;4.949951171875E-05;-0.681488037109375;532;100 µA;
-0.680694580078125;1135.46113313324;5.0140380859375E-05;-0.679595947265625;533;100 µA;
-0.67962646484375;1135.6747561327;5.01708984375E-05;-0.67822265625;534;100 µA;
-0.678558349609375;1135.88837913216;5.1544189453125E-05;-0.678253173828125;535;100 µA;
-0.677490234375;1136.10200213162;5.2093505859375E-05;-0.676544189453125;536;100 µA;
-0.676422119140625;1136.31562513108;5.2154541015625E-05;-0.6761474609375;537;100 µA;
-0.67535400390625;1136.52924813054;5.3314208984375E-05;-0.67572021484375;538;100 µA;
-0.674285888671875;1136.74287113;5.389404296875E-05;-0.674896240234375;539;100 µA;
-0.6732177734375;1136.95649412946;5.3955078125E-05;-0.67340087890625;540;100 µA;
-0.672149658203125;1137.17011712892;5.50537109375E-05;-0.672119140625;541;100 µA;
-0.67108154296875;1137.38374012838;5.5633544921875E-05;-0.671295166015625;542;100 µA;
-0.670013427734375;1137.59736312784;5.5755615234375E-05;-0.6697998046875;543;100 µA;
-0.6689453125;1137.8109861273;5.6427001953125E-05;-0.668548583984375;544;100 µA;
-0.667877197265625;1138.02460912676;5.7281494140625E-05;-0.6676025390625;545;100 µA;
-0.66680908203125;1138.23823212622;5.7281494140625E-05;-0.667327880859375;546;100 µA;
-0.665740966796875;1138.45185512569;5.8349609375E-05;-0.665191650390625;547;100 µA;
-0.6646728515625;1138.66547812515;5.914306640625E-05;-0.6646728515625;548;100 µA;
-0.663604736328125;1138.87910112461;5.8929443359375E-05;-0.663238525390625;549;100 µA;
-0.66253662109375;1139.09272412407;5.9906005859375E-05;-0.66217041015625;550;100 µA;
-0.661468505859375;1139.30634712353;6.1065673828125E-05;-0.66131591796875;551;100 µA;
-0.660400390625;1139.51997012299;6.0882568359375E-05;-0.66015625;552;100 µA;
-0.659332275390625;1139.73359312245;6.2103271484375E-05;-0.658111572265625;553;100 µA;
-0.65826416015625;1139.94721612191;6.3201904296875E-05;-0.657806396484375;554;100 µA;
-0.657196044921875;1140.16083912137;6.341552734375E-05;-0.6566162109375;555;100 µA;
-0.6561279296875;1140.37446212083;6.4483642578125E-05;-0.656951904296875;556;100 µA;
-0.655059814453125;1140.58808512029;6.5582275390625E-05;-0.655120849609375;557;100 µA;
-0.65399169921875;1140.80170811975;6.62841796875E-05;-0.653656005859375;558;100 µA;
-0.652923583984375;1141.01533111921;6.7138671875E-05;-0.652587890625;559;100 µA;
-0.65185546875;1141.22895411867;6.8603515625E-05;-0.652008056640625;560;100 µA;
-0.650787353515625;1141.44257711813;6.9366455078125E-05;-0.6512451171875;561;100 µA;
-0.64971923828125;1141.6562001176;7.03125E-05;-0.6495361328125;562;100 µA;
-0.648651123046875;1141.86982311706;7.1990966796875E-05;-0.6484375;563;100 µA;
-0.6475830078125;1142.08344611652;7.2784423828125E-05;-0.64703369140625;564;100 µA;
-0.646514892578125;1142.29706911598;7.3944091796875E-05;-0.646636962890625;565;100 µA;
-0.64544677734375;1142.51069211544;7.5897216796875E-05;-0.645233154296875;566;100 µA;
-0.644378662109375;1142.7243151149;7.7178955078125E-05;-0.644012451171875;567;100 µA;
-0.643310546875;1142.93793811436;7.7880859375E-05;-0.6427001953125;568;100 µA;
-0.642242431640625;1143.15156111382;8.0413818359375E-05;-0.64227294921875;569;100 µA;
-0.64117431640625;1143.36518411328;8.1878662109375E-05;-0.640838623046875;570;100 µA;
-0.640106201171875;1143.57880711274;8.2977294921875E-05;-0.639739990234375;571;100 µA;
-0.6390380859375;1143.7924301122;8.563232421875E-05;-0.639007568359375;572;100 µA;
-0.637969970703125;1144.00605311166;8.75244140625E-05;-0.63800048828125;573;100 µA;
-0.63690185546875;1144.21967611112;8.868408203125E-05;-0.637542724609375;574;100 µA;
-0.635833740234375;1144.43329911058;9.16748046875E-05;-0.636199951171875;575;100 µA;
-0.634765625;1144.64692211004;9.344482421875E-05;-0.634613037109375;576;100 µA;
-0.633697509765625;1144.86054510951;9.5062255859375E-05;-0.632781982421875;577;100 µA;
-0.63262939453125;1145.07416810897;9.7869873046875E-05;-0.633331298828125;578;100 µA;
-0.631561279296875;1145.28779110843;0.000100341796875;-0.63153076171875;579;100 µA;
-0.6304931640625;1145.50141410789;0.00010198974609375;-0.630340576171875;580;100 µA;
-0.629425048828125;1145.71503710735;0.000105560302734375;-0.629150390625;581;100 µA;
-0.62835693359375;1145.92866010681;0.000108001708984375;-0.628326416015625;582;100 µA;
-0.627288818359375;1146.14228310627;0.000109710693359375;-0.62744140625;583;100 µA;
-0.626220703125;1146.35590610573;0.000112579345703125;-0.626129150390625;584;100 µA;
-0.625152587890625;1146.56952910519;0.00011572265625;-0.624908447265625;585;100 µA;
-0.62408447265625;1146.78315210465;0.000117919921875;-0.623992919921875;586;100 µA;
-0.623016357421875;1146.99677510411;0.000121337890625;-0.622894287109375;587;100 µA;
-0.6219482421875;1147.21039810357;0.00012493896484375;-0.621734619140625;588;100 µA;
-0.620880126953125;1147.42402110303;0.000127410888671875;-0.620849609375;589;100 µA;
-0.61981201171875;1147.63764410249;0.000130767822265625;-0.620208740234375;590;100 µA;
-0.618743896484375;1147.85126710195;0.000134918212890625;-0.618438720703125;591;100 µA;
-0.61767578125;1148.06489010141;0.000137359619140625;-0.617156982421875;592;100 µA;
-0.616607666015625;1148.27851310088;0.000141448974609375;-0.615631103515625;593;100 µA;
-0.61553955078125;1148.49213610034;0.000146026611328125;-0.615081787109375;594;100 µA;
-0.614471435546875;1148.7057590998;0.000149261474609375;-0.6151123046875;595;100 µA;
-0.6134033203125;1148.91938209926;0.000153472900390625;-0.613433837890625;596;100 µA;
-0.612335205078125;1149.13300509872;0.000158416748046875;-0.612579345703125;597;100 µA;
-0.61126708984375;1149.34662809818;0.0001619873046875;-0.610931396484375;598;100 µA;
-0.610198974609375;1149.56025109764;0.000166351318359375;-0.609954833984375;599;100 µA;
-0.609130859375;1149.7738740971;0.000171600341796875;-0.608795166015625;600;100 µA;
-0.608062744140625;1149.98749709656;0.00017620849609375;-0.60760498046875;601;100 µA;
-0.60699462890625;1150.20112009602;0.000180999755859375;-0.60693359375;602;100 µA;
-0.605926513671875;1150.41474309548;0.000186981201171875;-0.606689453125;603;100 µA;
-0.6048583984375;1150.62836609494;0.000192413330078125;-0.60516357421875;604;100 µA;
-0.603790283203125;1150.8419890944;0.00019805908203125;-0.604339599609375;605;100 µA;
-0.60272216796875;1151.05561209386;0.00020513916015625;-0.602569580078125;606;100 µA;
-0.601654052734375;1151.26923509332;0.0002117919921875;-0.601898193359375;607;100 µA;
-0.6005859375;1151.48285809279;0.000217315673828125;-0.599853515625;608;100 µA;
-0.599517822265625;1151.69648109225;0.000225830078125;-0.599395751953125;609;100 µA;
-0.59844970703125;1151.91010409171;0.000233245849609375;-0.597991943359375;610;100 µA;
-0.597381591796875;1152.12372709117;0.000240753173828125;-0.597320556640625;611;100 µA;
-0.5963134765625;1152.33735009063;0.000249481201171875;-0.596405029296875;612;100 µA;
-0.595245361328125;1152.55097309009;0.0002587890625;-0.595306396484375;613;100 µA;
-0.59417724609375;1152.76459608955;0.000267791748046875;-0.59478759765625;614;100 µA;
-0.593109130859375;1152.97821908901;0.0002779541015625;-0.593597412109375;615;100 µA;
-0.592041015625;1153.19184208847;0.00028802490234375;-0.592132568359375;616;100 µA;
-0.590972900390625;1153.40546508793;0.000298492431640625;-0.5906982421875;617;100 µA;
-0.58990478515625;1153.61908808739;0.0003109130859375;-0.589752197265625;618;100 µA;
-0.588836669921875;1153.83271108685;0.000323089599609375;-0.58831787109375;619;100 µA;
-0.5877685546875;1154.04633408631;0.00033441162109375;-0.586700439453125;620;100 µA;
-0.586700439453125;1154.25995708577;0.0003480224609375;-0.586761474609375;621;100 µA;
-0.58563232421875;1154.47358008523;0.0003619384765625;-0.58544921875;622;100 µA;
-0.584564208984375;1154.6872030847;0.000375823974609375;-0.584014892578125;623;100 µA;
-0.58349609375;1154.90082608416;0.000390533447265625;-0.58258056640625;624;100 µA;
-0.582427978515625;1155.11444908362;0.00040679931640625;-0.581939697265625;625;100 µA;
-0.58135986328125;1155.32807208308;0.000421356201171875;-0.580902099609375;626;1 mA;
-0.580291748046875;1155.54169508254;0.000438232421875;-0.580291748046875;627;1 mA;
-0.5792236328125;1155.755318082;0.000454681396484375;-0.578765869140625;628;1 mA;
-0.578155517578125;1155.96894108146;0.0004718017578125;-0.578033447265625;629;1 mA;
-0.57708740234375;1156.18256408092;0.00048919677734375;-0.576873779296875;630;1 mA;
-0.576019287109375;1156.39618708038;0.00050689697265625;-0.57550048828125;631;1 mA;
-0.574951171875;1156.60981007984;0.00052398681640625;-0.574462890625;632;1 mA;
-0.573883056640625;1156.8234330793;0.000543212890625;-0.572540283203125;633;1 mA;
-0.57281494140625;1157.03705607876;0.0005615234375;-0.5726318359375;634;1 mA;
-0.571746826171875;1157.25067907822;0.00057861328125;-0.571533203125;635;1 mA;
-0.5706787109375;1157.46430207768;0.0005963134765625;-0.570892333984375;636;1 mA;
-0.569610595703125;1157.67792507714;0.0006158447265625;-0.569488525390625;637;1 mA;
-0.56854248046875;1157.89154807661;0.00063323974609375;-0.567718505859375;638;1 mA;
-0.567474365234375;1158.10517107607;0.00065155029296875;-0.566864013671875;639;1 mA;
-0.56640625;1158.31879407553;0.00067047119140625;-0.566253662109375;640;1 mA;
-0.565338134765625;1158.53241707499;0.00069091796875;-0.56475830078125;641;1 mA;
-0.56427001953125;1158.74604007445;0.0007086181640625;-0.563812255859375;642;1 mA;
-0.563201904296875;1158.95966307391;0.000728759765625;-0.563140869140625;643;1 mA;
-0.5621337890625;1159.17328607337;0.00074676513671875;-0.562103271484375;644;1 mA;
-0.561065673828125;1159.38690907283;0.0007659912109375;-0.560760498046875;645;1 mA;
-0.55999755859375;1159.60053207229;0.00078582763671875;-0.559356689453125;646;1 mA;
-0.558929443359375;1159.81415507175;0.0008050537109375;-0.558868408203125;647;1 mA;
-0.557861328125;1160.02777807121;0.00082275390625;-0.5570068359375;648;1 mA;
-0.556793212890625;1160.24140107067;0.000843505859375;-0.5560302734375;649;1 mA;
-0.55572509765625;1160.45502407013;0.00086395263671875;-0.555389404296875;650;1 mA;
-0.554656982421875;1160.66864706959;0.00088348388671875;-0.555267333984375;651;1 mA;
-0.5535888671875;1160.88227006905;0.0009039306640625;-0.553070068359375;652;1 mA;
-0.552520751953125;1161.09589306851;0.00092437744140625;-0.551788330078125;653;1 mA;
-0.55145263671875;1161.30951606798;0.00094329833984375;-0.55084228515625;654;1 mA;
-0.550384521484375;1161.52313906744;0.00096527099609375;-0.55023193359375;655;1 mA;
-0.54931640625;1161.7367620669;0.00098419189453125;-0.5487060546875;656;1 mA;
-0.548248291015625;1161.95038506636;0.0010052490234375;-0.548309326171875;657;1 mA;
-0.54718017578125;1162.16400806582;0.0010260009765625;-0.547576904296875;658;1 mA;
-0.546112060546875;1162.37763106528;0.001048583984375;-0.5457763671875;659;1 mA;
-0.5450439453125;1162.59125406474;0.00106842041015625;-0.54498291015625;660;1 mA;
-0.543975830078125;1162.8048770642;0.0010919189453125;-0.544158935546875;661;1 mA;
-0.54290771484375;1163.01850006366;0.0011138916015625;-0.54266357421875;662;1 mA;
-0.541839599609375;1163.23212306312;0.00113494873046875;-0.540985107421875;663;1 mA;
-0.540771484375;1163.44574606258;0.0011572265625;-0.540069580078125;664;1 mA;
-0.539703369140625;1163.65936906204;0.0011810302734375;-0.540008544921875;665;1 mA;
-0.53863525390625;1163.8729920615;0.00120269775390625;-0.538116455078125;666;1 mA;
-0.537567138671875;1164.08661506096;0.0012255859375;-0.538116455078125;667;1 mA;
-0.5364990234375;1164.30023806042;0.0012493896484375;-0.535858154296875;668;1 mA;
-0.535430908203125;1164.51386105989;0.00127349853515625;-0.534515380859375;669;1 mA;
-0.53436279296875;1164.72748405935;0.0012969970703125;-0.5328369140625;670;1 mA;
-0.533294677734375;1164.94110705881;0.0013214111328125;-0.533355712890625;671;1 mA;
-0.5322265625;1165.15473005827;0.0013427734375;-0.531829833984375;672;1 mA;
-0.531158447265625;1165.36835305773;0.00136871337890625;-0.531036376953125;673;1 mA;
-0.53009033203125;1165.58197605719;0.00139312744140625;-0.530792236328125;674;1 mA;
-0.529022216796875;1165.79559905665;0.00141754150390625;-0.529144287109375;675;1 mA;
-0.5279541015625;1166.00922205611;0.0014404296875;-0.526397705078125;676;1 mA;
-0.526885986328125;1166.22284505557;0.00146820068359375;-0.5267333984375;677;1 mA;
-0.52581787109375;1166.43646805503;0.001492919921875;-0.525177001953125;678;1 mA;
-0.524749755859375;1166.65009105449;0.00151763916015625;-0.52496337890625;679;1 mA;
-0.523681640625;1166.86371405395;0.00154327392578125;-0.523712158203125;680;1 mA;
-0.522613525390625;1167.07733705341;0.001568603515625;-0.52227783203125;681;1 mA;
-0.52154541015625;1167.29096005287;0.00159423828125;-0.5211181640625;682;1 mA;
-0.520477294921875;1167.50458305233;0.00162200927734375;-0.519622802734375;683;1 mA;
-0.5194091796875;1167.71820605179;0.00164581298828125;-0.519256591796875;684;1 mA;
-0.518341064453125;1167.93182905126;0.001671142578125;-0.518035888671875;685;1 mA;
-0.51727294921875;1168.14545205072;0.00169769287109375;-0.516754150390625;686;1 mA;
-0.516204833984375;1168.35907505018;0.0017242431640625;-0.51556396484375;687;1 mA;
-0.51513671875;1168.57269804964;0.001748046875;-0.514495849609375;688;1 mA;
-0.514068603515625;1168.7863210491;0.0017767333984375;-0.515228271484375;689;1 mA;
-0.51300048828125;1168.99994404856;0.00180145263671875;-0.513580322265625;690;1 mA;
-0.511932373046875;1169.21356704802;0.00182769775390625;-0.512237548828125;691;1 mA;
-0.5108642578125;1169.42719004748;0.0018536376953125;-0.51019287109375;692;1 mA;
-0.509796142578125;1169.64081304694;0.00188018798828125;-0.509735107421875;693;1 mA;
-0.50872802734375;1169.8544360464;0.001905517578125;-0.509063720703125;694;1 mA;
-0.507659912109375;1170.06805904586;0.00193115234375;-0.507415771484375;695;1 mA;
-0.506591796875;1170.28168204532;0.00195709228515625;-0.506317138671875;696;1 mA;
-0.505523681640625;1170.49530504478;0.00198394775390625;-0.505615234375;697;1 mA;
-0.50445556640625;1170.70892804424;0.00201080322265625;-0.50421142578125;698;1 mA;
-0.503387451171875;1170.9225510437;0.00203765869140625;-0.502471923828125;699;1 mA;
-0.5023193359375;1171.13617404317;0.002061767578125;-0.502349853515625;700;1 mA;
-0.501251220703125;1171.34979704263;0.00208984375;-0.50152587890625;701;1 mA;
-0.50018310546875;1171.56342004209;0.002115478515625;-0.499969482421875;702;1 mA;
-0.499114990234375;1171.77704304155;0.00214080810546875;-0.49896240234375;703;1 mA;
-0.498046875;1171.99066604101;0.00216583251953125;-0.498382568359375;704;1 mA;
-0.496978759765625;1172.20428904047;0.00219482421875;-0.497039794921875;705;1 mA;
-0.49591064453125;1172.41791203993;0.00221954345703125;-0.49609375;706;1 mA;
-0.494842529296875;1172.63153503939;0.0022467041015625;-0.494720458984375;707;1 mA;
-0.4937744140625;1172.84515803885;0.002271728515625;-0.493865966796875;708;1 mA;
-0.492706298828125;1173.05878103831;0.0022979736328125;-0.492462158203125;709;1 mA;
-0.49163818359375;1173.27240403777;0.00232391357421875;-0.491302490234375;710;1 mA;
-0.490570068359375;1173.48602703723;0.00234954833984375;-0.49090576171875;711;1 mA;
-0.489501953125;1173.69965003669;0.002373046875;-0.48980712890625;712;1 mA;
-0.488433837890625;1173.91327303615;0.002398681640625;-0.488311767578125;713;1 mA;
-0.48736572265625;1174.12689603561;0.00242828369140625;-0.487060546875;714;1 mA;
-0.486297607421875;1174.34051903508;0.00245391845703125;-0.486419677734375;715;1 mA;
-0.4852294921875;1174.55414203454;0.00247833251953125;-0.485443115234375;716;1 mA;
-0.484161376953125;1174.767765034;0.002506103515625;-0.484405517578125;717;1 mA;
-0.48309326171875;1174.98138803346;0.002530517578125;-0.483001708984375;718;1 mA;
-0.482025146484375;1175.19501103292;0.0025567626953125;-0.4815673828125;719;1 mA;
-0.48095703125;1175.40863403238;0.00258148193359375;-0.480194091796875;720;1 mA;
-0.479888916015625;1175.62225703184;0.00260772705078125;-0.4793701171875;721;1 mA;
-0.47882080078125;1175.8358800313;0.0026318359375;-0.477630615234375;722;1 mA;
-0.477752685546875;1176.04950303076;0.0026605224609375;-0.47711181640625;723;1 mA;
-0.4766845703125;1176.26312603022;0.00268524169921875;-0.47735595703125;724;1 mA;
-0.475616455078125;1176.47674902968;0.00271148681640625;-0.47552490234375;725;1 mA;
-0.47454833984375;1176.69037202914;0.00273773193359375;-0.474212646484375;726;1 mA;
-0.473480224609375;1176.9039950286;0.00276336669921875;-0.4739990234375;727;1 mA;
-0.472412109375;1177.11761802806;0.00278778076171875;-0.472625732421875;728;1 mA;
-0.471343994140625;1177.33124102752;0.00281585693359375;-0.472320556640625;729;1 mA;
-0.47027587890625;1177.54486402699;0.00284210205078125;-0.470489501953125;730;1 mA;
-0.469207763671875;1177.75848702645;0.002867431640625;-0.468505859375;731;1 mA;
-0.4681396484375;1177.97211002591;0.00289398193359375;-0.469451904296875;732;1 mA;
-0.467071533203125;1178.18573302537;0.00292388916015625;-0.4664306640625;733;1 mA;
-0.46600341796875;1178.39935602483;0.00294921875;-0.465057373046875;734;1 mA;
-0.464935302734375;1178.61297902429;0.00297943115234375;-0.464813232421875;735;1 mA;
-0.4638671875;1178.82660202375;0.00300445556640625;-0.4652099609375;736;1 mA;
-0.462799072265625;1179.04022502321;0.00303375244140625;-0.462005615234375;737;1 mA;
-0.46173095703125;1179.25384802267;0.0030621337890625;-0.46136474609375;738;1 mA;
-0.460662841796875;1179.46747102213;0.00309234619140625;-0.46148681640625;739;1 mA;
-0.4595947265625;1179.68109402159;0.0031182861328125;-0.459869384765625;740;1 mA;
-0.458526611328125;1179.89471702105;0.003150634765625;-0.458892822265625;741;1 mA;
-0.45745849609375;1180.10834002051;0.00318084716796875;-0.456939697265625;742;1 mA;
-0.456390380859375;1180.32196301997;0.0032098388671875;-0.4549560546875;743;1 mA;
-0.455322265625;1180.53558601943;0.00323944091796875;-0.4547119140625;744;1 mA;
-0.454254150390625;1180.74920901889;0.00327178955078125;-0.4542236328125;745;1 mA;
-0.45318603515625;1180.96283201836;0.00330322265625;-0.453399658203125;746;1 mA;
-0.452117919921875;1181.17645501782;0.00333526611328125;-0.451751708984375;747;1 mA;
-0.4510498046875;1181.39007801728;0.0033673095703125;-0.451080322265625;748;1 mA;
-0.449981689453125;1181.60370101674;0.00339996337890625;-0.449798583984375;749;1 mA;
-0.44891357421875;1181.8173240162;0.00343414306640625;-0.44921875;750;1 mA;
-0.447845458984375;1182.03094701566;0.00347076416015625;-0.447174072265625;751;1 mA;
-0.44677734375;1182.24457001512;0.0035028076171875;-0.44677734375;752;1 mA;
-0.445709228515625;1182.45819301458;0.0035400390625;-0.446563720703125;753;1 mA;
-0.44464111328125;1182.67181601404;0.00357574462890625;-0.444610595703125;754;1 mA;
-0.443572998046875;1182.8854390135;0.00361328125;-0.44287109375;755;1 mA;
-0.4425048828125;1183.09906201296;0.00364898681640625;-0.44256591796875;756;1 mA;
-0.441436767578125;1183.31268501242;0.00368865966796875;-0.44171142578125;757;1 mA;
-0.44036865234375;1183.52630801188;0.0037255859375;-0.44000244140625;758;1 mA;
-0.439300537109375;1183.73993101134;0.0037652587890625;-0.438446044921875;759;1 mA;
-0.438232421875;1183.9535540108;0.00380615234375;-0.438201904296875;760;1 mA;
-0.437164306640625;1184.16717701027;0.00384796142578125;-0.43621826171875;761;1 mA;
-0.43609619140625;1184.38080000973;0.00388885498046875;-0.435882568359375;762;1 mA;
-0.435028076171875;1184.59442300919;0.00393218994140625;-0.435333251953125;763;1 mA;
-0.4339599609375;1184.80804600865;0.00397491455078125;-0.433837890625;764;1 mA;
-0.432891845703125;1185.02166900811;0.00401885986328125;-0.433013916015625;765;1 mA;
-0.43182373046875;1185.23529200757;0.004063720703125;-0.431640625;766;1 mA;
-0.430755615234375;1185.44891500703;0.00410980224609375;-0.430694580078125;767;1 mA;
-0.4296875;1185.66253800649;0.00415130615234375;-0.430023193359375;768;1 mA;
-0.428619384765625;1185.87616100595;0.0042034912109375;-0.4287109375;769;1 mA;
-0.42755126953125;1186.08978400541;0.00425201416015625;-0.427215576171875;770;1 mA;
-0.426483154296875;1186.30340700487;0.00430206298828125;-0.4263916015625;771;1 mA;
-0.4254150390625;1186.51703000433;0.00435211181640625;-0.4248046875;772;1 mA;
-0.424346923828125;1186.73065300379;0.00440460205078125;-0.423553466796875;773;1 mA;
-0.42327880859375;1186.94427600325;0.00445556640625;-0.42333984375;774;1 mA;
-0.422210693359375;1187.15789900271;0.00450897216796875;-0.42181396484375;775;1 mA;
-0.421142578125;1187.37152200218;0.00456207275390625;-0.420501708984375;776;1 mA;
-0.420074462890625;1187.58514500164;0.00461639404296875;-0.420501708984375;777;1 mA;
-0.41900634765625;1187.7987680011;0.0046746826171875;-0.41839599609375;778;1 mA;
-0.417938232421875;1188.01239100056;0.0047332763671875;-0.418304443359375;779;1 mA;
-0.4168701171875;1188.22601400002;0.004788818359375;-0.416900634765625;780;1 mA;
-0.415802001953125;1188.43963699948;0.0048486328125;-0.415557861328125;781;1 mA;
-0.41473388671875;1188.65325999894;0.00490814208984375;-0.41448974609375;782;1 mA;
-0.413665771484375;1188.8668829984;0.0049688720703125;-0.413909912109375;783;1 mA;
-0.41259765625;1189.08050599786;0.00502716064453125;-0.412689208984375;784;1 mA;Current overload
-0.411529541015625;1189.29412899732;0.00509246826171875;-0.41162109375;785;1 mA;Current overload
-0.41046142578125;1189.50775199678;0.00515228271484375;-0.410919189453125;786;1 mA;Current overload
-0.409393310546875;1189.72137499624;0.0052197265625;-0.408294677734375;787;1 mA;Current overload
-0.4083251953125;1189.9349979957;0.00528533935546875;-0.408416748046875;788;1 mA;Current overload
-0.407257080078125;1190.14862099516;0.00535125732421875;-0.406494140625;789;1 mA;Current overload
-0.40618896484375;1190.36224399462;0.005416259765625;-0.40594482421875;790;1 mA;Current overload
-0.405120849609375;1190.57586699408;0.0054840087890625;-0.404998779296875;791;1 mA;Current overload
-0.404052734375;1190.78948999355;0.00555084228515625;-0.404083251953125;792;1 mA;Current overload
-0.402984619140625;1191.00311299301;0.00561920166015625;-0.402435302734375;793;1 mA;Current overload
-0.40191650390625;1191.21673599247;0.005689697265625;-0.401092529296875;794;1 mA;Current overload
-0.400848388671875;1191.43035899193;0.00575836181640625;-0.400970458984375;795;1 mA;Current overload
-0.3997802734375;1191.64398199139;0.00582916259765625;-0.39971923828125;796;1 mA;Current overload
-0.398712158203125;1191.85760499085;0.0059039306640625;-0.39874267578125;797;1 mA;Current overload
-0.39764404296875;1192.07122799031;0.00597412109375;-0.397186279296875;798;1 mA;Current overload
-0.396575927734375;1192.28485098977;0.0060467529296875;-0.3968505859375;799;1 mA;Current overload
-0.3955078125;1192.49847398923;0.00611846923828125;-0.39544677734375;800;1 mA;Current overload
-0.394439697265625;1192.71209698869;0.00619537353515625;-0.3941650390625;801;1 mA;Current overload
-0.39337158203125;1192.92571998815;0.0062677001953125;-0.393035888671875;802;1 mA;Current overload
-0.392303466796875;1193.13934298761;0.00634552001953125;-0.3919677734375;803;1 mA;Current overload
-0.3912353515625;1193.35296598707;0.0064190673828125;-0.390960693359375;804;1 mA;Current overload
-0.390167236328125;1193.56658898653;0.0064947509765625;-0.390228271484375;805;1 mA;Current overload
-0.38909912109375;1193.78021198599;0.00657379150390625;-0.3887939453125;806;1 mA;Current overload
-0.388031005859375;1193.99383498546;0.00665283203125;-0.388214111328125;807;1 mA;Current overload
-0.386962890625;1194.20745798492;0.0067291259765625;-0.386871337890625;808;1 mA;Current overload
-0.385894775390625;1194.42108098438;0.00681121826171875;-0.3858642578125;809;1 mA;Current overload
-0.38482666015625;1194.63470398384;0.0068927001953125;-0.3851318359375;810;1 mA;Current overload
-0.383758544921875;1194.8483269833;0.00697265625;-0.38409423828125;811;1 mA;Current overload
-0.3826904296875;1195.06194998276;0.0070538330078125;-0.382293701171875;812;1 mA;Current overload
-0.381622314453125;1195.27557298222;0.00713653564453125;-0.381622314453125;813;1 mA;Current overload
-0.38055419921875;1195.48919598168;0.00721771240234375;-0.380950927734375;814;1 mA;Current overload
-0.379486083984375;1195.70281898114;0.007303466796875;-0.3797607421875;815;1 mA;Current overload
-0.37841796875;1195.9164419806;0.00738494873046875;-0.3779296875;816;1 mA;Current overload
-0.377349853515625;1196.13006498006;0.00746978759765625;-0.376739501953125;817;1 mA;Current overload
-0.37628173828125;1196.34368797952;0.007552490234375;-0.376617431640625;818;1 mA;Current overload
-0.375213623046875;1196.55731097898;0.00763946533203125;-0.374725341796875;819;1 mA;Current overload
-0.3741455078125;1196.77093397844;0.007720947265625;-0.373748779296875;820;1 mA;Current overload
-0.373077392578125;1196.9845569779;0.0078082275390625;-0.373291015625;821;1 mA;Current overload
-0.37200927734375;1197.19817997737;0.007891845703125;-0.372406005859375;822;1 mA;Current overload
-0.370941162109375;1197.41180297683;0.00797760009765625;-0.370391845703125;823;1 mA;Current overload
-0.369873046875;1197.62542597629;0.0080633544921875;-0.36895751953125;824;1 mA;Current overload
-0.368804931640625;1197.83904897575;0.00815185546875;-0.368377685546875;825;1 mA;Current overload
-0.36773681640625;1198.05267197521;0.00823760986328125;-0.36810302734375;826;1 mA;Current overload
-0.366668701171875;1198.26629497467;0.00832427978515625;-0.36798095703125;827;1 mA;Current overload
-0.3656005859375;1198.47991797413;0.00841033935546875;-0.3653564453125;828;1 mA;Current overload
-0.364532470703125;1198.69354097359;0.00849822998046875;-0.365447998046875;829;1 mA;Current overload
-0.36346435546875;1198.90716397305;0.008583984375;-0.363067626953125;830;1 mA;Current overload
-0.362396240234375;1199.12078697251;0.00867401123046875;-0.362091064453125;831;1 mA;Current overload
-0.361328125;1199.33440997197;0.00875823974609375;-0.360870361328125;832;1 mA;Current overload
-0.360260009765625;1199.54803297143;0.00885040283203125;-0.36041259765625;833;1 mA;Current overload
-0.35919189453125;1199.76165597089;0.0089404296875;-0.359771728515625;834;1 mA;Current overload
-0.358123779296875;1199.97527897035;0.009029541015625;-0.35845947265625;835;1 mA;Current overload
-0.3570556640625;1200.18890196981;0.0091168212890625;-0.356842041015625;836;1 mA;Current overload
-0.355987548828125;1200.40252496928;0.009210205078125;-0.355682373046875;837;1 mA;Current overload
-0.35491943359375;1200.61614796874;0.00929931640625;-0.35455322265625;838;1 mA;Current overload
-0.353851318359375;1200.8297709682;0.00938934326171875;-0.353668212890625;839;1 mA;Current overload
-0.352783203125;1201.04339396766;0.0094805908203125;-0.354400634765625;840;1 mA;Current overload
-0.351715087890625;1201.25701696712;0.00957183837890625;-0.352508544921875;841;1 mA;Current overload
-0.35064697265625;1201.47063996658;0.00966522216796875;-0.3509521484375;842;1 mA;Current overload
-0.349578857421875;1201.68426296604;0.00976226806640625;-0.3486328125;843;1 mA;Current overload
-0.3485107421875;1201.8978859655;0.00985382080078125;-0.348968505859375;844;1 mA;Current overload
-0.347442626953125;1202.11150896496;0.00994873046875;-0.347015380859375;845;1 mA;Current overload
-0.34637451171875;1202.32513196442;0.00999786376953125;-0.3463134765625;846;1 mA;Current overload
-0.345306396484375;1202.53875496388;0.00999969482421875;-0.345184326171875;847;1 mA;Current overload
-0.34423828125;1202.75237796334;0.00999969482421875;-0.3448486328125;848;1 mA;Current overload
-0.343170166015625;1202.9660009628;0.00999969482421875;-0.343658447265625;849;1 mA;Current overload
-0.34210205078125;1203.17962396226;0.00999969482421875;-0.3419189453125;850;1 mA;Current overload
-0.341033935546875;1203.39324696172;0.00999969482421875;-0.340911865234375;851;1 mA;Current overload
-0.3399658203125;1203.60686996118;0.00999969482421875;-0.341339111328125;852;1 mA;Current overload
-0.338897705078125;1203.82049296065;0.00999969482421875;-0.3388671875;853;1 mA;Current overload
-0.33782958984375;1204.03411596011;0.00999969482421875;-0.33770751953125;854;1 mA;Current overload
-0.336761474609375;1204.24773895957;0.00999969482421875;-0.33740234375;855;1 mA;Current overload
-0.335693359375;1204.46136195903;0.00999969482421875;-0.335113525390625;856;1 mA;Current overload
-0.334625244140625;1204.67498495849;0.00999969482421875;-0.334442138671875;857;1 mA;Current overload
-0.33355712890625;1204.88860795795;0.00999969482421875;-0.33447265625;858;1 mA;Current overload
-0.332489013671875;1205.10223095741;0.00999969482421875;-0.33135986328125;859;1 mA;Current overload
-0.3314208984375;1205.31585395687;0.00999969482421875;-0.33203125;860;1 mA;Current overload
-0.330352783203125;1205.52947695633;0.00999969482421875;-0.330535888671875;861;1 mA;Current overload
-0.32928466796875;1205.74309995579;0.00999969482421875;-0.32891845703125;862;1 mA;Current overload
-0.328216552734375;1205.95672295525;0.00999969482421875;-0.32861328125;863;1 mA;Current overload
-0.3271484375;1206.17034595471;0.00999969482421875;-0.326995849609375;864;1 mA;Current overload
-0.326080322265625;1206.38396895417;0.00999969482421875;-0.3260498046875;865;1 mA;Current overload
-0.32501220703125;1206.59759195363;0.00999969482421875;-0.324859619140625;866;1 mA;Current overload
-0.323944091796875;1206.81121495309;0.00999969482421875;-0.324127197265625;867;1 mA;Current overload
-0.3228759765625;1207.02483795256;0.00999969482421875;-0.3232421875;868;1 mA;Current overload
-0.321807861328125;1207.23846095202;0.00999969482421875;-0.321990966796875;869;1 mA;Current overload
-0.32073974609375;1207.45208395148;0.00999969482421875;-0.320404052734375;870;1 mA;Current overload
-0.319671630859375;1207.66570695094;0.00999969482421875;-0.319732666015625;871;1 mA;Current overload
-0.318603515625;1207.8793299504;0.00999969482421875;-0.318115234375;872;1 mA;Current overload
-0.317535400390625;1208.09295294986;0.00999969482421875;-0.317474365234375;873;1 mA;Current overload
-0.31646728515625;1208.30657594932;0.00999969482421875;-0.317047119140625;874;1 mA;Current overload
-0.315399169921875;1208.52019894878;0.00999969482421875;-0.3154296875;875;1 mA;Current overload
-0.3143310546875;1208.73382194824;0.00999969482421875;-0.314117431640625;876;1 mA;Current overload
-0.313262939453125;1208.9474449477;0.00999969482421875;-0.313201904296875;877;1 mA;Current overload
-0.31219482421875;1209.16106794716;0.00999969482421875;-0.3123779296875;878;1 mA;Current overload
-0.311126708984375;1209.37469094662;0.00999969482421875;-0.310638427734375;879;1 mA;Current overload
-0.31005859375;1209.58831394608;0.00999969482421875;-0.309844970703125;880;1 mA;Current overload
-0.308990478515625;1209.80193694554;0.00999969482421875;-0.30908203125;881;1 mA;Current overload
-0.30792236328125;1210.015559945;0.00999969482421875;-0.307525634765625;882;1 mA;Current overload
-0.306854248046875;1210.22918294447;0.00999969482421875;-0.305633544921875;883;1 mA;Current overload
-0.3057861328125;1210.44280594393;0.00999969482421875;-0.30548095703125;884;1 mA;Current overload
-0.304718017578125;1210.65642894339;0.00999969482421875;-0.304473876953125;885;1 mA;Current overload
-0.30364990234375;1210.87005194285;0.00999969482421875;-0.303131103515625;886;1 mA;Current overload
-0.302581787109375;1211.08367494231;0.00999969482421875;-0.30255126953125;887;1 mA;Current overload
-0.301513671875;1211.29729794177;0.00999969482421875;-0.3011474609375;888;1 mA;Current overload
-0.300445556640625;1211.51092094123;0.00999969482421875;-0.300811767578125;889;1 mA;Current overload
-0.29937744140625;1211.72454394069;0.00999969482421875;-0.29962158203125;890;1 mA;Current overload
-0.298309326171875;1211.93816694015;0.00999969482421875;-0.29901123046875;891;1 mA;Current overload
-0.2972412109375;1212.15178993961;0.00999969482421875;-0.29779052734375;892;1 mA;Current overload
-0.296173095703125;1212.36541293907;0.00999969482421875;-0.297088623046875;893;1 mA;Current overload
-0.29510498046875;1212.57903593853;0.00999969482421875;-0.294708251953125;894;1 mA;Current overload
-0.294036865234375;1212.79265893799;0.00999969482421875;-0.293426513671875;895;1 mA;Current overload
-0.29296875;1213.00628193745;0.00999969482421875;-0.293212890625;896;1 mA;Current overload
-0.291900634765625;1213.21990493691;0.00999969482421875;-0.291595458984375;897;1 mA;Current overload
-0.29083251953125;1213.43352793638;0.00999969482421875;-0.289276123046875;898;1 mA;Current overload
-0.289764404296875;1213.64715093584;0.00999969482421875;-0.289306640625;899;1 mA;Current overload
-0.2886962890625;1213.8607739353;0.00999969482421875;-0.2884521484375;900;1 mA;Current overload
-0.287628173828125;1214.07439693476;0.00999969482421875;-0.287506103515625;901;1 mA;Current overload
-0.28656005859375;1214.28801993422;0.00999969482421875;-0.286590576171875;902;1 mA;Current overload
-0.285491943359375;1214.50164293368;0.00999969482421875;-0.285919189453125;903;1 mA;Current overload
-0.284423828125;1214.71526593314;0.00999969482421875;-0.28411865234375;904;1 mA;Current overload
-0.283355712890625;1214.9288889326;0.00999969482421875;-0.283538818359375;905;1 mA;Current overload
-0.28228759765625;1215.14251193206;0.00999969482421875;-0.281463623046875;906;1 mA;Current overload
-0.281219482421875;1215.35613493152;0.00999969482421875;-0.280670166015625;907;1 mA;Current overload
-0.2801513671875;1215.56975793098;0.00999969482421875;-0.2799072265625;908;1 mA;Current overload
-0.279083251953125;1215.78338093044;0.00999969482421875;-0.27825927734375;909;1 mA;Current overload
-0.27801513671875;1215.9970039299;0.00999969482421875;-0.27838134765625;910;1 mA;Current overload
-0.276947021484375;1216.21062692936;0.00999969482421875;-0.277435302734375;911;1 mA;Current overload
-0.27587890625;1216.42424992882;0.00999969482421875;-0.27593994140625;912;1 mA;Current overload
-0.274810791015625;1216.63787292828;0.00999969482421875;-0.275726318359375;913;1 mA;Current overload
-0.27374267578125;1216.85149592775;0.00999969482421875;-0.274078369140625;914;1 mA;Current overload
-0.272674560546875;1217.06511892721;0.00999969482421875;-0.27294921875;915;1 mA;Current overload
-0.2716064453125;1217.27874192667;0.00999969482421875;-0.271697998046875;916;1 mA;Current overload
-0.270538330078125;1217.49236492613;0.00999969482421875;-0.270599365234375;917;1 mA;Current overload
-0.26947021484375;1217.70598792559;0.00999969482421875;-0.269012451171875;918;1 mA;Current overload
-0.268402099609375;1217.91961092505;0.00999969482421875;-0.2686767578125;919;1 mA;Current overload
-0.267333984375;1218.13323392451;0.00999969482421875;-0.268096923828125;920;1 mA;Current overload
-0.266265869140625;1218.34685692397;0.00999969482421875;-0.267120361328125;921;1 mA;Current overload
-0.26519775390625;1218.56047992343;0.00999969482421875;-0.265045166015625;922;1 mA;Current overload
-0.264129638671875;1218.77410292289;0.00999969482421875;-0.263824462890625;923;1 mA;Current overload
-0.2630615234375;1218.98772592235;0.00999969482421875;-0.2628173828125;924;1 mA;Current overload
-0.261993408203125;1219.20134892181;0.00999969482421875;-0.261810302734375;925;1 mA;Current overload
-0.26092529296875;1219.41497192127;0.00999969482421875;-0.26092529296875;926;1 mA;Current overload
-0.259857177734375;1219.62859492073;0.00999969482421875;-0.25927734375;927;1 mA;Current overload
-0.2587890625;1219.84221792019;0.00999969482421875;-0.25787353515625;928;1 mA;Current overload
-0.257720947265625;1220.05584091966;0.00999969482421875;-0.257843017578125;929;1 mA;Current overload
-0.25665283203125;1220.26946391912;0.00999969482421875;-0.2568359375;930;1 mA;Current overload
-0.255584716796875;1220.48308691858;0.00999969482421875;-0.255523681640625;931;1 mA;Current overload
-0.2545166015625;1220.69670991804;0.00999969482421875;-0.25408935546875;932;1 mA;Current overload
-0.253448486328125;1220.9103329175;0.00999969482421875;-0.2550048828125;933;1 mA;Current overload
-0.25238037109375;1221.12395591696;0.00999969482421875;-0.252197265625;934;1 mA;Current overload
-0.251312255859375;1221.33757891642;0.00999969482421875;-0.25091552734375;935;1 mA;Current overload
-0.250244140625;1221.55120191588;0.00999969482421875;-0.250152587890625;936;1 mA;Current overload
-0.249176025390625;1221.76482491534;0.00999969482421875;-0.249725341796875;937;1 mA;Current overload
