Potential applied (V);Time (s);WE(1).Current (A);WE(1).Potential (V);Index;Current range;Overload
-1.19888305664063;1826.03995038969;-0.0445343017578125;-1.2005615234375;1;10 mA;
-1.19781494140625;1826.25357338915;-0.0438446044921875;-1.19720458984375;2;10 mA;
-1.19674682617188;1826.46719638861;-0.04249267578125;-1.1968994140625;3;10 mA;
-1.1956787109375;1826.68081938807;-0.041644287109375;-1.19720458984375;4;10 mA;
-1.19461059570313;1826.89444238754;-0.04083251953125;-1.19476318359375;5;10 mA;
-1.19354248046875;1827.108065387;-0.0402557373046875;-1.19415283203125;6;10 mA;
-1.19247436523438;1827.32168838646;-0.0398193359375;-1.19232177734375;7;10 mA;
-1.19140625;1827.53531138592;-0.039471435546875;-1.19110107421875;8;10 mA;
-1.19033813476563;1827.74893438538;-0.0391876220703125;-1.19110107421875;9;10 mA;
-1.18927001953125;1827.96255738484;-0.039019775390625;-1.18896484375;10;10 mA;
-1.18820190429688;1828.1761803843;-0.0388671875;-1.1883544921875;11;10 mA;
-1.1871337890625;1828.38980338376;-0.0386505126953125;-1.18988037109375;12;10 mA;
-1.18606567382813;1828.60342638322;-0.0382965087890625;-1.1865234375;13;10 mA;
-1.18499755859375;1828.81704938268;-0.0378173828125;-1.18499755859375;14;10 mA;
-1.18392944335938;1829.03067238214;-0.03721923828125;-1.18438720703125;15;10 mA;
-1.182861328125;1829.2442953816;-0.0365020751953125;-1.1834716796875;16;10 mA;
-1.18179321289063;1829.45791838106;-0.0356658935546875;-1.18316650390625;17;10 mA;
-1.18072509765625;1829.67154138052;-0.034722900390625;-1.18133544921875;18;10 mA;
-1.17965698242188;1829.88516437998;-0.03367919921875;-1.18072509765625;19;10 mA;
-1.1785888671875;1830.09878737944;-0.0325408935546875;-1.17889404296875;20;10 mA;
-1.17752075195313;1830.31241037891;-0.0312835693359375;-1.1785888671875;21;10 mA;
-1.17645263671875;1830.52603337837;-0.029901123046875;-1.1773681640625;22;10 mA;
-1.17538452148438;1830.73965637783;-0.0283538818359375;-1.1761474609375;23;10 mA;
-1.17431640625;1830.95327937729;-0.0266510009765625;-1.17523193359375;24;10 mA;
-1.17324829101563;1831.16690237675;-0.0247802734375;-1.17462158203125;25;10 mA;
-1.17218017578125;1831.38052537621;-0.022802734375;-1.1724853515625;26;10 mA;
-1.17111206054688;1831.59414837567;-0.0207611083984375;-1.17156982421875;27;10 mA;
-1.1700439453125;1831.80777137513;-0.0187713623046875;-1.17156982421875;28;10 mA;
-1.16897583007813;1832.02139437459;-0.0170501708984375;-1.1700439453125;29;10 mA;
-1.16790771484375;1832.23501737405;-0.0156341552734375;-1.1688232421875;30;10 mA;
-1.16683959960938;1832.44864037351;-0.01444091796875;-1.1676025390625;31;10 mA;
-1.165771484375;1832.66226337297;-0.0134063720703125;-1.165771484375;32;10 mA;
-1.16470336914063;1832.87588637243;-0.0124969482421875;-1.165771484375;33;10 mA;
-1.16363525390625;1833.08950937189;-0.011688232421875;-1.1639404296875;34;10 mA;
-1.16256713867188;1833.30313237135;-0.0109588623046875;-1.16241455078125;35;10 mA;
-1.1614990234375;1833.51675537082;-0.0102996826171875;-1.163330078125;36;10 mA;
-1.16043090820313;1833.73037837028;-0.00970458984375;-1.1614990234375;37;10 mA;
-1.15936279296875;1833.94400136974;-0.0091583251953125;-1.1602783203125;38;10 mA;
-1.15829467773438;1834.1576243692;-0.0086517333984375;-1.158447265625;39;10 mA;
-1.1572265625;1834.37124736866;-0.0081939697265625;-1.15936279296875;40;10 mA;
-1.15615844726563;1834.58487036812;-0.0077667236328125;-1.15692138671875;41;10 mA;
-1.15509033203125;1834.79849336758;-0.0073699951171875;-1.15509033203125;42;10 mA;
-1.15402221679688;1835.01211636704;-0.0070068359375;-1.15447998046875;43;10 mA;
-1.1529541015625;1835.2257393665;-0.0066680908203125;-1.15325927734375;44;10 mA;
-1.15188598632813;1835.43936236596;-0.00634765625;-1.15264892578125;45;10 mA;
-1.15081787109375;1835.65298536542;-0.0060546875;-1.151123046875;46;10 mA;
-1.14974975585938;1835.86660836488;-0.005780029296875;-1.14990234375;47;10 mA;
-1.148681640625;1836.08023136434;-0.0055206298828125;-1.14715576171875;48;10 mA;
-1.14761352539063;1836.2938543638;-0.005279541015625;-1.14776611328125;49;10 mA;
-1.14654541015625;1836.50747736326;-0.0050537109375;-1.1468505859375;50;10 mA;
-1.14547729492188;1836.72110036272;-0.004847412109375;-1.14654541015625;51;10 mA;
-1.1444091796875;1836.93472336219;-0.00464691162109375;-1.14501953125;52;10 mA;
-1.14334106445313;1837.14834636165;-0.00445953369140625;-1.14410400390625;53;10 mA;
-1.14227294921875;1837.36196936111;-0.0042803955078125;-1.143798828125;54;10 mA;
-1.14120483398438;1837.57559236057;-0.00411102294921875;-1.14166259765625;55;10 mA;
-1.14013671875;1837.78921536003;-0.0039544677734375;-1.14044189453125;56;10 mA;
-1.13906860351563;1838.00283835949;-0.00380279541015625;-1.1407470703125;57;10 mA;
-1.13800048828125;1838.21646135895;-0.00365997314453125;-1.1376953125;58;10 mA;
-1.13693237304688;1838.43008435841;-0.00352630615234375;-1.13861083984375;59;10 mA;
-1.1358642578125;1838.64370735787;-0.0033990478515625;-1.1376953125;60;10 mA;
-1.13479614257813;1838.85733035733;-0.00327728271484375;-1.13555908203125;61;10 mA;
-1.13372802734375;1839.07095335679;-0.0031646728515625;-1.13494873046875;62;10 mA;
-1.13265991210938;1839.28457635625;-0.003055419921875;-1.13372802734375;63;10 mA;
-1.131591796875;1839.49819935571;-0.00294921875;-1.1322021484375;64;10 mA;
-1.13052368164063;1839.71182235517;-0.002850341796875;-1.13128662109375;65;10 mA;
-1.12945556640625;1839.92544535463;-0.0027569580078125;-1.13006591796875;66;10 mA;
-1.12838745117188;1840.1390683541;-0.0026654052734375;-1.129150390625;67;10 mA;
-1.1273193359375;1840.35269135356;-0.00258026123046875;-1.12762451171875;68;10 mA;
-1.12625122070313;1840.56631435302;-0.0024993896484375;-1.1273193359375;69;10 mA;
-1.12518310546875;1840.77993735248;-0.00242034912109375;-1.12548828125;70;10 mA;
-1.12411499023438;1840.99356035194;-0.00234527587890625;-1.124267578125;71;10 mA;
-1.123046875;1841.2071833514;-0.00227630615234375;-1.124267578125;72;10 mA;
-1.12197875976563;1841.42080635086;-0.00220611572265625;-1.12335205078125;73;10 mA;
-1.12091064453125;1841.63442935032;-0.00214019775390625;-1.12091064453125;74;10 mA;
-1.11984252929688;1841.84805234978;-0.00207977294921875;-1.1199951171875;75;10 mA;
-1.1187744140625;1842.06167534924;-0.00201995849609375;-1.119384765625;76;10 mA;
-1.11770629882813;1842.2752983487;-0.00196136474609375;-1.1187744140625;77;10 mA;
-1.11663818359375;1842.48892134816;-0.00190826416015625;-1.116943359375;78;10 mA;
-1.11557006835938;1842.70254434762;-0.00185516357421875;-1.1175537109375;79;10 mA;
-1.114501953125;1842.91616734708;-0.00180389404296875;-1.11541748046875;80;10 mA;
-1.11343383789063;1843.12979034654;-0.001756591796875;-1.114501953125;81;10 mA;
-1.11236572265625;1843.34341334601;-0.001710205078125;-1.11328125;82;10 mA;
-1.11129760742188;1843.55703634547;-0.001663818359375;-1.11175537109375;83;10 mA;
-1.1102294921875;1843.77065934493;-0.0016229248046875;-1.11114501953125;84;10 mA;
-1.10916137695313;1843.98428234439;-0.0015826416015625;-1.11083984375;85;10 mA;
-1.10809326171875;1844.19790534385;-0.001541748046875;-1.1090087890625;86;10 mA;
-1.10702514648438;1844.41152834331;-0.0015032958984375;-1.10870361328125;87;10 mA;
-1.10595703125;1844.62515134277;-0.00146820068359375;-1.10626220703125;88;10 mA;
-1.10488891601563;1844.83877434223;-0.00143035888671875;-1.10443115234375;89;10 mA;
-1.10382080078125;1845.05239734169;-0.001396484375;-1.10504150390625;90;10 mA;
-1.10275268554688;1845.26602034115;-0.00136383056640625;-1.10321044921875;91;10 mA;
-1.1016845703125;1845.47964334061;-0.00133087158203125;-1.10198974609375;92;10 mA;
-1.10061645507813;1845.69326634007;-0.001298828125;-1.10076904296875;93;10 mA;
-1.09954833984375;1845.90688933953;-0.00127105712890625;-1.10137939453125;94;10 mA;
-1.09848022460938;1846.12051233899;-0.00124176025390625;-1.099853515625;95;10 mA;
-1.097412109375;1846.33413533845;-0.0012127685546875;-1.0980224609375;96;10 mA;
-1.09634399414063;1846.54775833792;-0.0011871337890625;-1.09649658203125;97;10 mA;
-1.09527587890625;1846.76138133738;-0.0011602783203125;-1.0968017578125;98;10 mA;
-1.09420776367188;1846.97500433684;-0.001134033203125;-1.0955810546875;99;10 mA;
-1.0931396484375;1847.1886273363;-0.00111083984375;-1.09375;100;10 mA;
-1.09207153320313;1847.40225033576;-0.00108673095703125;-1.0931396484375;101;10 mA;
-1.09100341796875;1847.61587333522;-0.00106201171875;-1.0919189453125;102;10 mA;
-1.08993530273438;1847.82949633468;-0.0010406494140625;-1.0906982421875;103;10 mA;
-1.0888671875;1848.04311933414;-0.0010198974609375;-1.0894775390625;104;10 mA;
-1.08779907226563;1848.2567423336;-0.0009967041015625;-1.08795166015625;105;10 mA;
-1.08673095703125;1848.47036533306;-0.00097686767578125;-1.087646484375;106;10 mA;
-1.08566284179688;1848.68398833252;-0.000958251953125;-1.08642578125;107;10 mA;
-1.0845947265625;1848.89761133198;-0.00093780517578125;-1.085205078125;108;10 mA;
-1.08352661132813;1849.11123433144;-0.0009185791015625;-1.0845947265625;109;10 mA;
-1.08245849609375;1849.3248573309;-0.00090118408203125;-1.0833740234375;110;1 mA;
-1.08139038085938;1849.53848033036;-0.00088165283203125;-1.08184814453125;111;1 mA;
-1.080322265625;1849.75210332982;-0.00086456298828125;-1.08123779296875;112;1 mA;
-1.07925415039063;1849.96572632929;-0.0008502197265625;-1.07940673828125;113;1 mA;
-1.07818603515625;1850.17934932875;-0.00083251953125;-1.07879638671875;114;1 mA;
-1.07711791992188;1850.39297232821;-0.00081512451171875;-1.0784912109375;115;1 mA;
-1.0760498046875;1850.60659532767;-0.00080322265625;-1.075439453125;116;1 mA;
-1.07498168945313;1850.82021832713;-0.0007867431640625;-1.07574462890625;117;1 mA;
-1.07391357421875;1851.03384132659;-0.00077117919921875;-1.07421875;118;1 mA;
-1.07284545898438;1851.24746432605;-0.0007586669921875;-1.07391357421875;119;1 mA;
-1.07177734375;1851.46108732551;-0.0007452392578125;-1.072998046875;120;1 mA;
-1.07070922851563;1851.67471032497;-0.0007293701171875;-1.07147216796875;121;1 mA;
-1.06964111328125;1851.88833332443;-0.0007183837890625;-1.070556640625;122;1 mA;
-1.06857299804688;1852.10195632389;-0.0007061767578125;-1.0687255859375;123;1 mA;
-1.0675048828125;1852.31557932335;-0.0006915283203125;-1.06842041015625;124;1 mA;
-1.06643676757813;1852.52920232281;-0.0006805419921875;-1.06658935546875;125;1 mA;
-1.06536865234375;1852.74282532227;-0.000670166015625;-1.06597900390625;126;1 mA;
-1.06430053710938;1852.95644832173;-0.00065704345703125;-1.06414794921875;127;1 mA;
-1.063232421875;1853.1700713212;-0.000645751953125;-1.06292724609375;128;1 mA;
-1.06216430664063;1853.38369432066;-0.00063629150390625;-1.06109619140625;129;1 mA;
-1.06109619140625;1853.59731732012;-0.000623779296875;-1.06170654296875;130;1 mA;
-1.06002807617188;1853.81094031958;-0.0006134033203125;-1.06048583984375;131;1 mA;
-1.0589599609375;1854.02456331904;-0.00060516357421875;-1.05926513671875;132;1 mA;
-1.05789184570313;1854.2381863185;-0.0005938720703125;-1.0589599609375;133;1 mA;
-1.05682373046875;1854.45180931796;-0.00058349609375;-1.0577392578125;134;1 mA;
-1.05575561523438;1854.66543231742;-0.000576171875;-1.0565185546875;135;1 mA;
-1.0546875;1854.87905531688;-0.00056671142578125;-1.055908203125;136;1 mA;
-1.05361938476563;1855.09267831634;-0.00055572509765625;-1.05377197265625;137;1 mA;
-1.05255126953125;1855.3063013158;-0.00054901123046875;-1.0516357421875;138;1 mA;
-1.05148315429688;1855.51992431526;-0.00053985595703125;-1.05224609375;139;1 mA;
-1.0504150390625;1855.73354731472;-0.00053009033203125;-1.05072021484375;140;1 mA;
-1.04934692382813;1855.94717031418;-0.00052398681640625;-1.0504150390625;141;1 mA;
-1.04827880859375;1856.16079331364;-0.0005157470703125;-1.048583984375;142;1 mA;
-1.04721069335938;1856.37441631311;-0.000506591796875;-1.04827880859375;143;1 mA;
-1.046142578125;1856.58803931257;-0.00050018310546875;-1.0479736328125;144;1 mA;
-1.04507446289063;1856.80166231203;-0.000491943359375;-1.04522705078125;145;1 mA;
-1.04400634765625;1857.01528531149;-0.00048309326171875;-1.044921875;146;1 mA;
-1.04293823242188;1857.22890831095;-0.0004766845703125;-1.0430908203125;147;1 mA;
-1.0418701171875;1857.44253131041;-0.0004705810546875;-1.04217529296875;148;1 mA;
-1.04080200195313;1857.65615430987;-0.00046173095703125;-1.0406494140625;149;1 mA;
-1.03973388671875;1857.86977730933;-0.00045562744140625;-1.03973388671875;150;1 mA;
-1.03866577148438;1858.08340030879;-0.00044952392578125;-1.03851318359375;151;1 mA;
-1.03759765625;1858.29702330825;-0.00044281005859375;-1.0382080078125;152;1 mA;
-1.03652954101563;1858.51064630771;-0.0004351806640625;-1.03729248046875;153;1 mA;
-1.03546142578125;1858.72426930717;-0.0004302978515625;-1.036376953125;154;1 mA;
-1.03439331054688;1858.93789230663;-0.0004229736328125;-1.03485107421875;155;1 mA;
-1.0333251953125;1859.15151530609;-0.0004166259765625;-1.03363037109375;156;1 mA;
-1.03225708007813;1859.36513830555;-0.00041168212890625;-1.03485107421875;157;1 mA;
-1.03118896484375;1859.57876130502;-0.000405609130859375;-1.031494140625;158;1 mA;
-1.03012084960938;1859.79238430448;-0.000398681640625;-1.03057861328125;159;1 mA;
-1.029052734375;1860.00600730394;-0.000394317626953125;-1.02935791015625;160;1 mA;
-1.02798461914063;1860.2196303034;-0.000388885498046875;-1.029052734375;161;1 mA;
-1.02691650390625;1860.43325330286;-0.000382049560546875;-1.0272216796875;162;1 mA;
-1.02584838867188;1860.64687630232;-0.00037738037109375;-1.025390625;163;1 mA;
-1.0247802734375;1860.86049930178;-0.000372772216796875;-1.02569580078125;164;1 mA;
-1.02371215820313;1861.07412230124;-0.00036651611328125;-1.02508544921875;165;1 mA;
-1.02264404296875;1861.2877453007;-0.0003616943359375;-1.02386474609375;166;1 mA;
-1.02157592773438;1861.50136830016;-0.000357177734375;-1.0223388671875;167;1 mA;
-1.0205078125;1861.71499129962;-0.0003504638671875;-1.0223388671875;168;1 mA;
-1.01943969726563;1861.92861429908;-0.00034515380859375;-1.0198974609375;169;1 mA;
-1.01837158203125;1862.14223729854;-0.00034173583984375;-1.01959228515625;170;1 mA;
-1.01730346679688;1862.355860298;-0.0003359375;-1.01776123046875;171;1 mA;
-1.0162353515625;1862.56948329746;-0.000330718994140625;-1.01593017578125;172;1 mA;
-1.01516723632813;1862.78310629692;-0.00032708740234375;-1.0162353515625;173;1 mA;
-1.01409912109375;1862.99672929639;-0.000322113037109375;-1.01409912109375;174;1 mA;
-1.01303100585938;1863.21035229585;-0.00031640625;-1.0137939453125;175;1 mA;
-1.011962890625;1863.42397529531;-0.000312957763671875;-1.0125732421875;176;1 mA;
-1.01089477539063;1863.63759829477;-0.000307525634765625;-1.01165771484375;177;1 mA;
-1.00982666015625;1863.85122129423;-0.000302215576171875;-1.01043701171875;178;1 mA;
-1.00875854492188;1864.06484429369;-0.000298553466796875;-1.00830078125;179;1 mA;
-1.0076904296875;1864.27846729315;-0.000295013427734375;-1.00799560546875;180;1 mA;
-1.00662231445313;1864.49209029261;-0.000288970947265625;-1.0076904296875;181;1 mA;
-1.00555419921875;1864.70571329207;-0.000285675048828125;-1.005859375;182;1 mA;
-1.00448608398438;1864.91933629153;-0.000281829833984375;-1.00555419921875;183;1 mA;
-1.00341796875;1865.13295929099;-0.000277069091796875;-1.0040283203125;184;1 mA;
-1.00234985351563;1865.34658229045;-0.000272674560546875;-1.0028076171875;185;1 mA;
-1.00128173828125;1865.56020528991;-0.000270172119140625;-1.00189208984375;186;1 mA;
-1.00021362304688;1865.77382828937;-0.000264495849609375;-1.0009765625;187;1 mA;
-0.9991455078125;1865.98745128883;-0.000261016845703125;-1.0003662109375;188;1 mA;
-0.998077392578125;1866.2010742883;-0.000258148193359375;-0.9991455078125;189;1 mA;
-0.99700927734375;1866.41469728776;-0.0002540283203125;-0.997314453125;190;1 mA;
-0.995941162109375;1866.62832028722;-0.000249298095703125;-0.99700927734375;191;1 mA;
-0.994873046875;1866.84194328668;-0.0002471923828125;-0.99517822265625;192;1 mA;
-0.993804931640625;1867.05556628614;-0.0002430419921875;-0.99395751953125;193;1 mA;
-0.99273681640625;1867.2691892856;-0.00023846435546875;-0.99395751953125;194;1 mA;
-0.991668701171875;1867.48281228506;-0.00023638916015625;-0.99090576171875;195;1 mA;
-0.9906005859375;1867.69643528452;-0.000233062744140625;-0.99090576171875;196;1 mA;
-0.989532470703125;1867.91005828398;-0.000228363037109375;-0.9912109375;197;1 mA;
-0.98846435546875;1868.12368128344;-0.000226104736328125;-0.9893798828125;198;1 mA;
-0.987396240234375;1868.3373042829;-0.000223358154296875;-0.98846435546875;199;1 mA;
-0.986328125;1868.55092728236;-0.00021893310546875;-0.98724365234375;200;1 mA;
-0.985260009765625;1868.76455028182;-0.0002158203125;-0.98602294921875;201;1 mA;
-0.98419189453125;1868.97817328128;-0.00021368408203125;-0.9844970703125;202;1 mA;
-0.983123779296875;1869.19179628074;-0.000209381103515625;-0.98388671875;203;1 mA;
-0.9820556640625;1869.40541928021;-0.000206787109375;-0.982666015625;204;1 mA;
-0.980987548828125;1869.61904227967;-0.00020428466796875;-0.9832763671875;205;1 mA;
-0.97991943359375;1869.83266527913;-0.000200958251953125;-0.97991943359375;206;1 mA;
-0.978851318359375;1870.04628827859;-0.0001981201171875;-0.9783935546875;207;1 mA;
-0.977783203125;1870.25991127805;-0.000195526123046875;-0.97869873046875;208;1 mA;
-0.976715087890625;1870.47353427751;-0.000192657470703125;-0.97747802734375;209;1 mA;
-0.97564697265625;1870.68715727697;-0.000188873291015625;-0.9765625;210;1 mA;
-0.974578857421875;1870.90078027643;-0.000187164306640625;-0.97564697265625;211;1 mA;
-0.9735107421875;1871.11440327589;-0.00018475341796875;-0.97381591796875;212;1 mA;
-0.972442626953125;1871.32802627535;-0.000179779052734375;-0.972900390625;213;1 mA;
-0.97137451171875;1871.54164927481;-0.000179046630859375;-0.97320556640625;214;1 mA;
-0.970306396484375;1871.75527227427;-0.00017596435546875;-0.970458984375;215;1 mA;
-0.96923828125;1871.96889527373;-0.000173126220703125;-0.96923828125;216;1 mA;
-0.968170166015625;1872.18251827319;-0.000172149658203125;-0.96893310546875;217;1 mA;
-0.96710205078125;1872.39614127265;-0.0001690673828125;-0.9674072265625;218;1 mA;
-0.966033935546875;1872.60976427211;-0.000164398193359375;-0.96527099609375;219;1 mA;
-0.9649658203125;1872.82338727158;-0.0001632080078125;-0.96527099609375;220;1 mA;
-0.963897705078125;1873.03701027104;-0.000161224365234375;-0.96527099609375;221;1 mA;
-0.96282958984375;1873.2506332705;-0.000157623291015625;-0.9637451171875;222;1 mA;
-0.961761474609375;1873.46425626996;-0.00015582275390625;-0.96221923828125;223;1 mA;
-0.960693359375;1873.67787926942;-0.000154205322265625;-0.96160888671875;224;1 mA;
-0.959625244140625;1873.89150226888;-0.000150604248046875;-0.96160888671875;225;1 mA;
-0.95855712890625;1874.10512526834;-0.0001480712890625;-0.9588623046875;226;1 mA;
-0.957489013671875;1874.3187482678;-0.00014703369140625;-0.9588623046875;227;1 mA;
-0.9564208984375;1874.53237126726;-0.000143768310546875;-0.95611572265625;228;1 mA;
-0.955352783203125;1874.74599426672;-0.000140533447265625;-0.9552001953125;229;1 mA;
-0.95428466796875;1874.95961726618;-0.0001396484375;-0.95458984375;230;1 mA;
-0.953216552734375;1875.17324026564;-0.00013714599609375;-0.953369140625;231;1 mA;
-0.9521484375;1875.3868632651;-0.0001343994140625;-0.9527587890625;232;1 mA;
-0.951080322265625;1875.60048626456;-0.000132781982421875;-0.9515380859375;233;1 mA;
-0.95001220703125;1875.81410926402;-0.000130645751953125;-0.95062255859375;234;1 mA;
-0.948944091796875;1876.02773226349;-0.00012738037109375;-0.9503173828125;235;1 mA;
-0.9478759765625;1876.24135526295;-0.00012664794921875;-0.95001220703125;236;1 mA;
-0.946807861328125;1876.45497826241;-0.00012420654296875;-0.94757080078125;237;1 mA;
-0.94573974609375;1876.66860126187;-0.000120941162109375;-0.9466552734375;238;1 mA;
-0.944671630859375;1876.88222426133;-0.000119720458984375;-0.94451904296875;239;1 mA;
-0.943603515625;1877.09584726079;-0.0001182861328125;-0.94482421875;240;1 mA;
-0.942535400390625;1877.30947026025;-0.000114654541015625;-0.94329833984375;241;1 mA;
-0.94146728515625;1877.52309325971;-0.000113128662109375;-0.94207763671875;242;1 mA;
-0.940399169921875;1877.73671625917;-0.000111572265625;-0.94024658203125;243;1 mA;
-0.9393310546875;1877.95033925863;-0.000108428955078125;-0.9405517578125;244;1 mA;
-0.938262939453125;1878.16396225809;-0.00010675048828125;-0.938720703125;245;1 mA;
-0.93719482421875;1878.37758525755;-0.00010589599609375;-0.93719482421875;246;1 mA;
-0.936126708984375;1878.59120825701;-0.00010223388671875;-0.9368896484375;247;1 mA;
-0.93505859375;1878.80483125647;-0.000100311279296875;-0.936279296875;248;1 mA;
-0.933990478515625;1879.01845425593;-9.8876953125E-05;-0.9344482421875;249;1 mA;
-0.93292236328125;1879.2320772554;-9.6527099609375E-05;-0.933837890625;250;1 mA;
-0.931854248046875;1879.44570025486;-9.3414306640625E-05;-0.93231201171875;251;1 mA;
-0.9307861328125;1879.65932325432;-9.2803955078125E-05;-0.931396484375;252;1 mA;
-0.929718017578125;1879.87294625378;-9.051513671875E-05;-0.928955078125;253;1 mA;
-0.92864990234375;1880.08656925324;-8.8165283203125E-05;-0.9295654296875;254;100 µA;
-0.927581787109375;1880.3001922527;-8.7127685546875E-05;-0.928955078125;255;100 µA;
-0.926513671875;1880.51381525216;-8.5052490234375E-05;-0.927734375;256;100 µA;
-0.925445556640625;1880.72743825162;-8.111572265625E-05;-0.9259033203125;257;100 µA;
-0.92437744140625;1880.94106125108;-8.0780029296875E-05;-0.924072265625;258;100 µA;
-0.923309326171875;1881.15468425054;-7.9254150390625E-05;-0.924072265625;259;100 µA;
-0.9222412109375;1881.36830725;-7.5531005859375E-05;-0.92315673828125;260;100 µA;
-0.921173095703125;1881.58193024946;-7.4676513671875E-05;-0.9234619140625;261;100 µA;
-0.92010498046875;1881.79555324892;-7.3394775390625E-05;-0.92254638671875;262;100 µA;
-0.919036865234375;1882.00917624838;-6.9915771484375E-05;-0.91888427734375;263;100 µA;
-0.91796875;1882.22279924784;-6.8939208984375E-05;-0.91766357421875;264;100 µA;
-0.916900634765625;1882.43642224731;-6.719970703125E-05;-0.91796875;265;100 µA;
-0.91583251953125;1882.65004524677;-6.3995361328125E-05;-0.91705322265625;266;100 µA;
-0.914764404296875;1882.86366824623;-6.23779296875E-05;-0.9161376953125;267;100 µA;
-0.9136962890625;1883.07729124569;-6.18896484375E-05;-0.91522216796875;268;100 µA;
-0.912628173828125;1883.29091424515;-5.841064453125E-05;-0.91461181640625;269;100 µA;
-0.91156005859375;1883.50453724461;-5.645751953125E-05;-0.91156005859375;270;100 µA;
-0.910491943359375;1883.71816024407;-5.584716796875E-05;-0.9112548828125;271;100 µA;
-0.909423828125;1883.93178324353;-5.2825927734375E-05;-0.9112548828125;272;100 µA;
-0.908355712890625;1884.14540624299;-5.059814453125E-05;-0.909423828125;273;100 µA;
-0.90728759765625;1884.35902924245;-5.0018310546875E-05;-0.90789794921875;274;100 µA;
-0.906219482421875;1884.57265224191;-4.7210693359375E-05;-0.906982421875;275;100 µA;
-0.9051513671875;1884.78627524137;-4.4219970703125E-05;-0.90576171875;276;100 µA;
-0.904083251953125;1884.99989824083;-4.4464111328125E-05;-0.90484619140625;277;100 µA;
-0.90301513671875;1885.21352124029;-4.18701171875E-05;-0.9039306640625;278;100 µA;
-0.901947021484375;1885.42714423975;-3.84521484375E-05;-0.90179443359375;279;100 µA;
-0.90087890625;1885.64076723921;-3.8421630859375E-05;-0.90087890625;280;100 µA;
-0.899810791015625;1885.85439023868;-3.643798828125E-05;-0.90057373046875;281;100 µA;
-0.89874267578125;1886.06801323814;-3.314208984375E-05;-0.89935302734375;282;100 µA;
-0.897674560546875;1886.2816362376;-3.21044921875E-05;-0.8978271484375;283;100 µA;
-0.8966064453125;1886.49525923706;-2.972412109375E-05;-0.89691162109375;284;100 µA;
-0.895538330078125;1886.70888223652;-2.532958984375E-05;-0.8953857421875;285;100 µA;
-0.89447021484375;1886.92250523598;-2.5054931640625E-05;-0.8953857421875;286;100 µA;
-0.893402099609375;1887.13612823544;-2.4627685546875E-05;-0.89508056640625;287;100 µA;
-0.892333984375;1887.3497512349;-2.1209716796875E-05;-0.89324951171875;288;100 µA;
-0.891265869140625;1887.56337423436;-2.0782470703125E-05;-0.89263916015625;289;100 µA;
-0.89019775390625;1887.77699723382;-1.8951416015625E-05;-0.889892578125;290;100 µA;
-0.889129638671875;1887.99062023328;-1.690673828125E-05;-0.88958740234375;291;100 µA;
-0.8880615234375;1888.20424323274;-1.4495849609375E-05;-0.88714599609375;292;100 µA;
-0.886993408203125;1888.4178662322;-1.45263671875E-05;-0.88775634765625;293;100 µA;
-0.88592529296875;1888.63148923166;-1.2451171875E-05;-0.88531494140625;294;100 µA;
-0.884857177734375;1888.84511223112;-9.185791015625E-06;-0.88531494140625;295;100 µA;
-0.8837890625;1889.05873523059;-1.0101318359375E-05;-0.885009765625;296;100 µA;
-0.882720947265625;1889.27235823005;-7.110595703125E-06;-0.882568359375;297;100 µA;
-0.88165283203125;1889.48598122951;-2.655029296875E-06;-0.88226318359375;298;100 µA;
-0.880584716796875;1889.69960422897;-3.2958984375E-06;-0.88104248046875;299;100 µA;
-0.8795166015625;1889.91322722843;-2.166748046875E-06;-0.88104248046875;300;100 µA;
-0.878448486328125;1890.12685022789;1.434326171875E-06;-0.87921142578125;301;100 µA;
-0.87738037109375;1890.34047322735;1.0498046875E-06;-0.8782958984375;302;10 µA;
-0.876312255859375;1890.55409622681;2.47802734375E-06;-0.87738037109375;303;10 µA;
-0.875244140625;1890.76771922627;5.5267333984375E-06;-0.87646484375;304;10 µA;
-0.874176025390625;1890.98134222573;6.31103515625E-06;-0.87493896484375;305;10 µA;
-0.87310791015625;1891.19496522519;6.610107421875E-06;-0.87310791015625;306;10 µA;
-0.872039794921875;1891.40858822465;1.1016845703125E-05;-0.872802734375;307;10 µA;
-0.8709716796875;1891.62221122411;1.0784912109375E-05;-0.87188720703125;308;10 µA;
-0.869903564453125;1891.83583422357;1.0986328125E-05;-0.870361328125;309;10 µA;
-0.86883544921875;1892.04945722303;1.4080810546875E-05;-0.8685302734375;310;10 µA;
-0.867767333984375;1892.26308022249;1.54205322265625E-05;-0.8685302734375;311;10 µA;
-0.86669921875;1892.47670322196;1.49810791015625E-05;-0.86669921875;312;10 µA;
-0.865631103515625;1892.69032622142;1.80572509765625E-05;-0.867919921875;313;10 µA;
-0.86456298828125;1892.90394922088;1.98883056640625E-05;-0.865478515625;314;10 µA;
-0.863494873046875;1893.11757222034;1.9476318359375E-05;-0.86456298828125;315;10 µA;
-0.8624267578125;1893.3311952198;2.20184326171875E-05;-0.8624267578125;316;10 µA;
-0.861358642578125;1893.54481821926;2.4505615234375E-05;-0.86181640625;317;10 µA;
-0.86029052734375;1893.75844121872;2.3382568359375E-05;-0.860595703125;318;10 µA;
-0.859222412109375;1893.97206421818;2.51129150390625E-05;-0.860595703125;319;10 µA;
-0.858154296875;1894.18568721764;2.8167724609375E-05;-0.85906982421875;320;10 µA;
-0.857086181640625;1894.3993102171;2.79571533203125E-05;-0.8575439453125;321;10 µA;
-0.85601806640625;1894.61293321656;2.9461669921875E-05;-0.8563232421875;322;10 µA;
-0.854949951171875;1894.82655621602;3.2403564453125E-05;-0.85540771484375;323;10 µA;
-0.8538818359375;1895.04017921548;3.19854736328125E-05;-0.8551025390625;324;10 µA;
-0.852813720703125;1895.25380221494;3.31695556640625E-05;-0.85418701171875;325;10 µA;
-0.85174560546875;1895.4674252144;3.62579345703125E-05;-0.853271484375;326;10 µA;
-0.850677490234375;1895.68104821387;3.64471435546875E-05;-0.85174560546875;327;10 µA;
-0.849609375;1895.89467121333;3.59222412109375E-05;-0.8502197265625;328;10 µA;
-0.848541259765625;1896.10829421279;3.9825439453125E-05;-0.84930419921875;329;10 µA;
-0.84747314453125;1896.32191721225;4.0362548828125E-05;-0.84686279296875;330;10 µA;
-0.846405029296875;1896.53554021171;4.022216796875E-05;-0.84686279296875;331;100 µA;
-0.8453369140625;1896.74916321117;4.278564453125E-05;-0.845947265625;332;100 µA;
-0.844268798828125;1896.96278621063;4.437255859375E-05;-0.84503173828125;333;100 µA;
-0.84320068359375;1897.17640921009;4.4403076171875E-05;-0.843505859375;334;100 µA;
-0.842132568359375;1897.39003220955;4.693603515625E-05;-0.8428955078125;335;100 µA;
-0.841064453125;1897.60365520901;4.8309326171875E-05;-0.84228515625;336;100 µA;
-0.839996337890625;1897.81727820847;4.827880859375E-05;-0.84014892578125;337;100 µA;
-0.83892822265625;1898.03090120793;5.072021484375E-05;-0.84014892578125;338;100 µA;
-0.837860107421875;1898.24452420739;5.2978515625E-05;-0.83953857421875;339;100 µA;
-0.8367919921875;1898.45814720685;5.2734375E-05;-0.83770751953125;340;100 µA;
-0.835723876953125;1898.67177020631;5.4534912109375E-05;-0.836181640625;341;100 µA;
-0.83465576171875;1898.88539320578;5.6884765625E-05;-0.8355712890625;342;100 µA;
-0.833587646484375;1899.09901620524;5.7037353515625E-05;-0.8343505859375;343;100 µA;
-0.83251953125;1899.3126392047;5.82275390625E-05;-0.8355712890625;344;100 µA;
-0.831451416015625;1899.52626220416;6.1065673828125E-05;-0.8319091796875;345;100 µA;
-0.83038330078125;1899.73988520362;6.1431884765625E-05;-0.8319091796875;346;100 µA;
-0.829315185546875;1899.95350820308;6.25E-05;-0.83099365234375;347;100 µA;
-0.8282470703125;1900.16713120254;6.5399169921875E-05;-0.82916259765625;348;100 µA;
-0.827178955078125;1900.380754202;6.65283203125E-05;-0.82794189453125;349;100 µA;
-0.82611083984375;1900.59437720146;6.6619873046875E-05;-0.82611083984375;350;100 µA;
-0.825042724609375;1900.80800020092;6.9732666015625E-05;-0.8245849609375;351;100 µA;
-0.823974609375;1901.02162320038;7.080078125E-05;-0.82489013671875;352;100 µA;
-0.822906494140625;1901.23524619984;7.1014404296875E-05;-0.8245849609375;353;100 µA;
-0.82183837890625;1901.4488691993;7.3883056640625E-05;-0.82183837890625;354;100 µA;
-0.820770263671875;1901.66249219876;7.51953125E-05;-0.8209228515625;355;100 µA;
-0.8197021484375;1901.87611519822;7.50732421875E-05;-0.8203125;356;100 µA;
-0.818634033203125;1902.08973819769;7.84912109375E-05;-0.8197021484375;357;100 µA;
-0.81756591796875;1902.30336119715;8.026123046875E-05;-0.81817626953125;358;100 µA;
-0.816497802734375;1902.51698419661;7.9986572265625E-05;-0.81787109375;359;100 µA;
-0.8154296875;1902.73060719607;8.197021484375E-05;-0.8160400390625;360;100 µA;
-0.814361572265625;1902.94423019553;8.4991455078125E-05;-0.8154296875;361;100 µA;
-0.81329345703125;1903.15785319499;8.465576171875E-05;-0.8135986328125;362;100 µA;
-0.812225341796875;1903.37147619445;8.6944580078125E-05;-0.81298828125;363;100 µA;
-0.8111572265625;1903.58509919391;8.92333984375E-05;-0.811767578125;364;100 µA;
-0.810089111328125;1903.79872219337;9.0087890625E-05;-0.810546875;365;100 µA;
-0.80902099609375;1904.01234519283;9.173583984375E-05;-0.809326171875;366;100 µA;
-0.807952880859375;1904.22596819229;9.478759765625E-05;-0.80902099609375;367;100 µA;
-0.806884765625;1904.43959119175;9.48486328125E-05;-0.80780029296875;368;100 µA;
-0.805816650390625;1904.65321419121;9.674072265625E-05;-0.8062744140625;369;100 µA;
-0.80474853515625;1904.86683719067;9.979248046875E-05;-0.80474853515625;370;100 µA;
-0.803680419921875;1905.08046019013;0.00010125732421875;-0.80474853515625;371;100 µA;
-0.8026123046875;1905.29408318959;0.000102691650390625;-0.80352783203125;372;100 µA;
-0.801544189453125;1905.50770618906;0.000105743408203125;-0.80230712890625;373;100 µA;
-0.80047607421875;1905.72132918852;0.000107391357421875;-0.8013916015625;374;100 µA;
-0.799407958984375;1905.93495218798;0.000107696533203125;-0.799560546875;375;100 µA;
-0.79833984375;1906.14857518744;0.000111175537109375;-0.79803466796875;376;100 µA;
-0.797271728515625;1906.3621981869;0.000112396240234375;-0.797119140625;377;100 µA;
-0.79620361328125;1906.57582118636;0.000112762451171875;-0.79742431640625;378;100 µA;
-0.795135498046875;1906.78944418582;0.000116485595703125;-0.797119140625;379;100 µA;
-0.7940673828125;1907.00306718528;0.000118194580078125;-0.7952880859375;380;100 µA;
-0.792999267578125;1907.21669018474;0.000118896484375;-0.79254150390625;381;100 µA;
-0.79193115234375;1907.4303131842;0.000122406005859375;-0.791015625;382;100 µA;
-0.790863037109375;1907.64393618366;0.000124298095703125;-0.7916259765625;383;100 µA;
-0.789794921875;1907.85755918312;0.00012481689453125;-0.791015625;384;100 µA;
-0.788726806640625;1908.07118218258;0.000128082275390625;-0.78887939453125;385;100 µA;
-0.78765869140625;1908.28480518204;0.000130859375;-0.7879638671875;386;100 µA;
-0.786590576171875;1908.4984281815;0.0001307373046875;-0.78765869140625;387;100 µA;
-0.7855224609375;1908.71205118097;0.00013336181640625;-0.78643798828125;388;100 µA;
-0.784454345703125;1908.92567418043;0.000136871337890625;-0.784912109375;389;100 µA;
-0.78338623046875;1909.13929717989;0.00013629150390625;-0.78399658203125;390;100 µA;
-0.782318115234375;1909.35292017935;0.00013885498046875;-0.7830810546875;391;100 µA;
-0.78125;1909.56654317881;0.00014117431640625;-0.78216552734375;392;100 µA;
-0.780181884765625;1909.78016617827;0.0001419677734375;-0.78094482421875;393;100 µA;
-0.77911376953125;1909.99378917773;0.0001439208984375;-0.77972412109375;394;100 µA;
-0.778045654296875;1910.20741217719;0.000147430419921875;-0.77850341796875;395;100 µA;
-0.7769775390625;1910.42103517665;0.000146820068359375;-0.77789306640625;396;100 µA;
-0.775909423828125;1910.63465817611;0.0001490478515625;-0.77789306640625;397;100 µA;
-0.77484130859375;1910.84828117557;0.00015167236328125;-0.775146484375;398;100 µA;
-0.773773193359375;1911.06190417503;0.000151702880859375;-0.7745361328125;399;100 µA;
-0.772705078125;1911.27552717449;0.000152191162109375;-0.77362060546875;400;100 µA;
-0.771636962890625;1911.48915017395;0.00015545654296875;-0.7720947265625;401;100 µA;
-0.77056884765625;1911.70277317341;0.000155670166015625;-0.770263671875;402;100 µA;
-0.769500732421875;1911.91639617288;0.000156280517578125;-0.770263671875;403;100 µA;
-0.7684326171875;1912.13001917234;0.00015875244140625;-0.76934814453125;404;100 µA;
-0.767364501953125;1912.3436421718;0.000159210205078125;-0.76873779296875;405;100 µA;
-0.76629638671875;1912.55726517126;0.000158477783203125;-0.7666015625;406;100 µA;
-0.765228271484375;1912.77088817072;0.000161529541015625;-0.76629638671875;407;100 µA;
-0.76416015625;1912.98451117018;0.00016119384765625;-0.76507568359375;408;100 µA;
-0.763092041015625;1913.19813416964;0.000160675048828125;-0.7647705078125;409;100 µA;
-0.76202392578125;1913.4117571691;0.000162841796875;-0.76263427734375;410;100 µA;
-0.760955810546875;1913.62538016856;0.000163726806640625;-0.7611083984375;411;100 µA;
-0.7598876953125;1913.83900316802;0.000162353515625;-0.76080322265625;412;100 µA;
-0.758819580078125;1914.05262616748;0.000164886474609375;-0.7586669921875;413;100 µA;
-0.75775146484375;1914.26624916694;0.000165557861328125;-0.75775146484375;414;100 µA;
-0.756683349609375;1914.4798721664;0.000164154052734375;-0.75714111328125;415;100 µA;
-0.755615234375;1914.69349516586;0.00016632080078125;-0.755615234375;416;100 µA;
-0.754547119140625;1914.90711816532;0.00016717529296875;-0.7562255859375;417;100 µA;
-0.75347900390625;1915.12074116478;0.00016571044921875;-0.7537841796875;418;100 µA;
-0.752410888671875;1915.33436416425;0.000167633056640625;-0.7525634765625;419;100 µA;
-0.7513427734375;1915.54798716371;0.00016912841796875;-0.75225830078125;420;100 µA;
-0.750274658203125;1915.76161016317;0.000168212890625;-0.7498779296875;421;100 µA;
-0.74920654296875;1915.97523316263;0.000169769287109375;-0.7490234375;422;100 µA;
-0.748138427734375;1916.18885616209;0.00017156982421875;-0.7474365234375;423;100 µA;
-0.7470703125;1916.40247916155;0.000170318603515625;-0.746673583984375;424;100 µA;
-0.746002197265625;1916.61610216101;0.000172393798828125;-0.74560546875;425;100 µA;
-0.74493408203125;1916.82972516047;0.000174774169921875;-0.744232177734375;426;100 µA;
-0.743865966796875;1917.04334815993;0.000174407958984375;-0.743194580078125;427;100 µA;
-0.7427978515625;1917.25697115939;0.0001756591796875;-0.743438720703125;428;100 µA;
-0.741729736328125;1917.47059415885;0.000178955078125;-0.741607666015625;429;100 µA;
-0.74066162109375;1917.68421715831;0.000178985595703125;-0.74017333984375;430;100 µA;
-0.739593505859375;1917.89784015777;0.00018121337890625;-0.73809814453125;431;100 µA;
-0.738525390625;1918.11146315723;0.0001839599609375;-0.7379150390625;432;100 µA;
-0.737457275390625;1918.32508615669;0.000184722900390625;-0.736846923828125;433;100 µA;
-0.73638916015625;1918.53870915616;0.000186859130859375;-0.7354736328125;434;100 µA;
-0.735321044921875;1918.75233215562;0.000190765380859375;-0.73577880859375;435;100 µA;
-0.7342529296875;1918.96595515508;0.00019134521484375;-0.733856201171875;436;100 µA;
-0.733184814453125;1919.17957815454;0.0001937255859375;-0.73345947265625;437;100 µA;
-0.73211669921875;1919.393201154;0.00019775390625;-0.732269287109375;438;100 µA;
-0.731048583984375;1919.60682415346;0.000199615478515625;-0.731597900390625;439;100 µA;
-0.72998046875;1919.82044715292;0.000201019287109375;-0.729736328125;440;100 µA;
-0.728912353515625;1920.03407015238;0.000206329345703125;-0.728851318359375;441;100 µA;
-0.72784423828125;1920.24769315184;0.00020745849609375;-0.727386474609375;442;100 µA;
-0.726776123046875;1920.4613161513;0.00021044921875;-0.726470947265625;443;100 µA;
-0.7257080078125;1920.67493915076;0.000215240478515625;-0.7254638671875;444;100 µA;
-0.724639892578125;1920.88856215022;0.00021807861328125;-0.724365234375;445;100 µA;
-0.72357177734375;1921.10218514968;0.000220062255859375;-0.7222900390625;446;100 µA;
-0.722503662109375;1921.31580814914;0.000225372314453125;-0.722625732421875;447;100 µA;
-0.721435546875;1921.5294311486;0.000228485107421875;-0.721923828125;448;100 µA;
-0.720367431640625;1921.74305414807;0.000231048583984375;-0.719696044921875;449;100 µA;
-0.71929931640625;1921.95667714753;0.000236602783203125;-0.719512939453125;450;100 µA;
-0.718231201171875;1922.17030014699;0.00024005126953125;-0.717254638671875;451;100 µA;
-0.7171630859375;1922.38392314645;0.00024249267578125;-0.7164306640625;452;100 µA;
-0.716094970703125;1922.59754614591;0.000248291015625;-0.715850830078125;453;100 µA;
-0.71502685546875;1922.81116914537;0.00025213623046875;-0.7152099609375;454;100 µA;
-0.713958740234375;1923.02479214483;0.0002550048828125;-0.7138671875;455;100 µA;
-0.712890625;1923.23841514429;0.0002598876953125;-0.7130126953125;456;100 µA;
-0.711822509765625;1923.45203814375;0.000265655517578125;-0.711669921875;457;100 µA;
-0.71075439453125;1923.66566114321;0.00026824951171875;-0.710205078125;458;100 µA;
-0.709686279296875;1923.87928414267;0.00027398681640625;-0.710174560546875;459;100 µA;
-0.7086181640625;1924.09290714213;0.000278839111328125;-0.7081298828125;460;100 µA;
-0.707550048828125;1924.30653014159;0.00028228759765625;-0.7071533203125;461;100 µA;
-0.70648193359375;1924.52015314105;0.00028741455078125;-0.70587158203125;462;100 µA;
-0.705413818359375;1924.73377614051;0.000293670654296875;-0.70550537109375;463;100 µA;
-0.704345703125;1924.94739913998;0.000296112060546875;-0.704376220703125;464;100 µA;
-0.703277587890625;1925.16102213944;0.00030181884765625;-0.702606201171875;465;100 µA;
-0.70220947265625;1925.3746451389;0.000308380126953125;-0.70294189453125;466;100 µA;
-0.701141357421875;1925.58826813836;0.00031256103515625;-0.701019287109375;467;100 µA;
-0.7000732421875;1925.80189113782;0.000317901611328125;-0.69854736328125;468;100 µA;
-0.699005126953125;1926.01551413728;0.0003250732421875;-0.697967529296875;469;100 µA;
-0.69793701171875;1926.22913713674;0.00032879638671875;-0.697479248046875;470;100 µA;
-0.696868896484375;1926.4427601362;0.0003349609375;-0.6964111328125;471;100 µA;
-0.69580078125;1926.65638313566;0.0003411865234375;-0.69573974609375;472;100 µA;
-0.694732666015625;1926.87000613512;0.000346282958984375;-0.694305419921875;473;100 µA;
-0.69366455078125;1927.08362913458;0.000351593017578125;-0.693695068359375;474;100 µA;
-0.692596435546875;1927.29725213404;0.000360931396484375;-0.692901611328125;475;100 µA;
-0.6915283203125;1927.5108751335;0.000364837646484375;-0.69146728515625;476;100 µA;
-0.690460205078125;1927.72449813296;0.000370697021484375;-0.6898193359375;477;100 µA;
-0.68939208984375;1927.93812113242;0.00037835693359375;-0.688751220703125;478;100 µA;
-0.688323974609375;1928.15174413188;0.000384033203125;-0.6878662109375;479;100 µA;
-0.687255859375;1928.36536713135;0.00038909912109375;-0.687347412109375;480;100 µA;
-0.686187744140625;1928.57899013081;0.00039739990234375;-0.685302734375;481;100 µA;
-0.68511962890625;1928.79261313027;0.000403717041015625;-0.68463134765625;482;100 µA;
-0.684051513671875;1929.00623612973;0.000408538818359375;-0.683319091796875;483;1 mA;
-0.6829833984375;1929.21985912919;0.0004171142578125;-0.6837158203125;484;1 mA;
-0.681915283203125;1929.43348212865;0.00042437744140625;-0.681610107421875;485;1 mA;
-0.68084716796875;1929.64710512811;0.00043017578125;-0.68072509765625;486;1 mA;
-0.679779052734375;1929.86072812757;0.000438232421875;-0.67816162109375;487;1 mA;
-0.6787109375;1930.07435112703;0.00044464111328125;-0.6785888671875;488;1 mA;
-0.677642822265625;1930.28797412649;0.00045196533203125;-0.67767333984375;489;1 mA;
-0.67657470703125;1930.50159712595;0.00045989990234375;-0.675537109375;490;1 mA;
-0.675506591796875;1930.71522012541;0.0004681396484375;-0.67523193359375;491;1 mA;
-0.6744384765625;1930.92884312487;0.0004736328125;-0.67462158203125;492;1 mA;
-0.673370361328125;1931.14246612433;0.0004833984375;-0.67303466796875;493;1 mA;
-0.67230224609375;1931.35608912379;0.0004913330078125;-0.671966552734375;494;1 mA;
-0.671234130859375;1931.56971212326;0.000498046875;-0.671112060546875;495;1 mA;
-0.670166015625;1931.78333512272;0.0005059814453125;-0.670074462890625;496;1 mA;
-0.669097900390625;1931.99695812218;0.00051483154296875;-0.66912841796875;497;1 mA;
-0.66802978515625;1932.21058112164;0.0005218505859375;-0.667022705078125;498;1 mA;
-0.666961669921875;1932.4242041211;0.00053070068359375;-0.666290283203125;499;1 mA;
-0.6658935546875;1932.63782712056;0.00053924560546875;-0.666107177734375;500;1 mA;
-0.664825439453125;1932.85145012002;0.000546875;-0.664306640625;501;1 mA;
-0.66375732421875;1933.06507311948;0.0005548095703125;-0.66351318359375;502;1 mA;
-0.662689208984375;1933.27869611894;0.000565185546875;-0.662109375;503;1 mA;
-0.66162109375;1933.4923191184;0.00057220458984375;-0.66058349609375;504;1 mA;
-0.660552978515625;1933.70594211786;0.000582275390625;-0.660614013671875;505;1 mA;
-0.65948486328125;1933.91956511732;0.0005914306640625;-0.658843994140625;506;1 mA;
-0.658416748046875;1934.13318811678;0.00060089111328125;-0.658416748046875;507;1 mA;
-0.6573486328125;1934.34681111624;0.00060882568359375;-0.656890869140625;508;1 mA;
-0.656280517578125;1934.5604341157;0.00062103271484375;-0.656036376953125;509;1 mA;
-0.65521240234375;1934.77405711517;0.0006298828125;-0.655517578125;510;1 mA;
-0.654144287109375;1934.98768011463;0.00063873291015625;-0.653594970703125;511;1 mA;
-0.653076171875;1935.20130311409;0.00065093994140625;-0.65289306640625;512;1 mA;
-0.652008056640625;1935.41492611355;0.00066131591796875;-0.652130126953125;513;1 mA;
-0.65093994140625;1935.62854911301;0.0006707763671875;-0.649566650390625;514;1 mA;
-0.649871826171875;1935.84217211247;0.00068328857421875;-0.648590087890625;515;1 mA;
-0.6488037109375;1936.05579511193;0.000693359375;-0.648681640625;516;1 mA;
-0.647735595703125;1936.26941811139;0.00070404052734375;-0.64691162109375;517;1 mA;
-0.64666748046875;1936.48304111085;0.000716552734375;-0.6468505859375;518;1 mA;
-0.645599365234375;1936.69666411031;0.00072784423828125;-0.645751953125;519;1 mA;
-0.64453125;1936.91028710977;0.0007379150390625;-0.64361572265625;520;1 mA;
-0.643463134765625;1937.12391010923;0.000753173828125;-0.64385986328125;521;1 mA;
-0.64239501953125;1937.33753310869;0.00076629638671875;-0.6422119140625;522;1 mA;
-0.641326904296875;1937.55115610815;0.00077789306640625;-0.64178466796875;523;1 mA;
-0.6402587890625;1937.76477910761;0.00079071044921875;-0.639892578125;524;1 mA;
-0.639190673828125;1937.97840210708;0.0008056640625;-0.638763427734375;525;1 mA;
-0.63812255859375;1938.19202510654;0.00081787109375;-0.63775634765625;526;1 mA;
-0.637054443359375;1938.405648106;0.00083099365234375;-0.636962890625;527;1 mA;
-0.635986328125;1938.61927110546;0.00084625244140625;-0.6358642578125;528;1 mA;
-0.634918212890625;1938.83289410492;0.00085906982421875;-0.634674072265625;529;1 mA;
-0.63385009765625;1939.04651710438;0.000875244140625;-0.63397216796875;530;1 mA;
-0.632781982421875;1939.26014010384;0.0008917236328125;-0.63214111328125;531;1 mA;
-0.6317138671875;1939.4737631033;0.0009051513671875;-0.631256103515625;532;1 mA;
-0.630645751953125;1939.68738610276;0.00092132568359375;-0.631072998046875;533;1 mA;
-0.62957763671875;1939.90100910222;0.0009375;-0.63031005859375;534;1 mA;
-0.628509521484375;1940.11463210168;0.0009527587890625;-0.628265380859375;535;1 mA;
-0.62744140625;1940.32825510114;0.0009674072265625;-0.626800537109375;536;1 mA;
-0.626373291015625;1940.5418781006;0.00098663330078125;-0.62628173828125;537;1 mA;
-0.62530517578125;1940.75550110006;0.0010015869140625;-0.6253662109375;538;1 mA;
-0.624237060546875;1940.96912409952;0.0010186767578125;-0.623809814453125;539;1 mA;
-0.6231689453125;1941.18274709898;0.00103759765625;-0.62298583984375;540;1 mA;
-0.622100830078125;1941.39637009845;0.001055908203125;-0.62249755859375;541;1 mA;
-0.62103271484375;1941.60999309791;0.00107269287109375;-0.620849609375;542;1 mA;
-0.619964599609375;1941.82361609737;0.0010931396484375;-0.619384765625;543;1 mA;
-0.618896484375;1942.03723909683;0.00111083984375;-0.6187744140625;544;1 mA;
-0.617828369140625;1942.25086209629;0.0011297607421875;-0.61737060546875;545;1 mA;
-0.61676025390625;1942.46448509575;0.00115081787109375;-0.6163330078125;546;1 mA;
-0.615692138671875;1942.67810809521;0.00117034912109375;-0.615447998046875;547;1 mA;
-0.6146240234375;1942.89173109467;0.00118896484375;-0.6142578125;548;1 mA;
-0.613555908203125;1943.10535409413;0.00121246337890625;-0.613372802734375;549;1 mA;
-0.61248779296875;1943.31897709359;0.00123291015625;-0.6121826171875;550;1 mA;
-0.611419677734375;1943.53260009305;0.0012530517578125;-0.611297607421875;551;1 mA;
-0.6103515625;1943.74622309251;0.00127288818359375;-0.610382080078125;552;1 mA;
-0.609283447265625;1943.95984609197;0.0012982177734375;-0.610076904296875;553;1 mA;
-0.60821533203125;1944.17346909143;0.0013177490234375;-0.60888671875;554;1 mA;
-0.607147216796875;1944.38709209089;0.001341552734375;-0.6070556640625;555;1 mA;
-0.6060791015625;1944.60071509036;0.001363525390625;-0.606231689453125;556;1 mA;
-0.605010986328125;1944.81433808982;0.00138763427734375;-0.60479736328125;557;1 mA;
-0.60394287109375;1945.02796108928;0.00141143798828125;-0.6041259765625;558;1 mA;
-0.602874755859375;1945.24158408874;0.00143646240234375;-0.6019287109375;559;1 mA;
-0.601806640625;1945.4552070882;0.00145843505859375;-0.60186767578125;560;1 mA;
-0.600738525390625;1945.66883008766;0.00148284912109375;-0.60107421875;561;1 mA;
-0.59967041015625;1945.88245308712;0.001510009765625;-0.599365234375;562;1 mA;
-0.598602294921875;1946.09607608658;0.001534423828125;-0.5977783203125;563;1 mA;
-0.5975341796875;1946.30969908604;0.0015576171875;-0.5970458984375;564;1 mA;
-0.596466064453125;1946.5233220855;0.001585693359375;-0.595001220703125;565;1 mA;
-0.59539794921875;1946.73694508496;0.001611328125;-0.59478759765625;566;1 mA;
-0.594329833984375;1946.95056808442;0.0016363525390625;-0.5941162109375;567;1 mA;
-0.59326171875;1947.16419108388;0.0016632080078125;-0.59320068359375;568;1 mA;
-0.592193603515625;1947.37781408334;0.00169189453125;-0.591552734375;569;1 mA;
-0.59112548828125;1947.5914370828;0.00171661376953125;-0.59124755859375;570;1 mA;
-0.590057373046875;1947.80506008226;0.00174652099609375;-0.590087890625;571;1 mA;
-0.5889892578125;1948.01868308173;0.0017730712890625;-0.588226318359375;572;1 mA;
-0.587921142578125;1948.23230608119;0.001800537109375;-0.58782958984375;573;1 mA;
-0.58685302734375;1948.44592908065;0.00182830810546875;-0.586822509765625;574;1 mA;
-0.585784912109375;1948.65955208011;0.00185699462890625;-0.584686279296875;575;1 mA;
-0.584716796875;1948.87317507957;0.0018841552734375;-0.5845947265625;576;1 mA;
-0.583648681640625;1949.08679807903;0.00191497802734375;-0.583740234375;577;1 mA;
-0.58258056640625;1949.30042107849;0.00194580078125;-0.581939697265625;578;1 mA;
-0.581512451171875;1949.51404407795;0.0019744873046875;-0.581634521484375;579;1 mA;
-0.5804443359375;1949.72766707741;0.00200347900390625;-0.581329345703125;580;1 mA;
-0.579376220703125;1949.94129007687;0.0020367431640625;-0.578948974609375;581;1 mA;
-0.57830810546875;1950.15491307633;0.0020648193359375;-0.578704833984375;582;1 mA;
-0.577239990234375;1950.36853607579;0.00209503173828125;-0.576873779296875;583;1 mA;
-0.576171875;1950.58215907525;0.00212554931640625;-0.575897216796875;584;1 mA;
-0.575103759765625;1950.79578207471;0.002159423828125;-0.574737548828125;585;1 mA;
-0.57403564453125;1951.00940507417;0.00218963623046875;-0.5748291015625;586;1 mA;
-0.572967529296875;1951.22302807364;0.0022235107421875;-0.57275390625;587;1 mA;
-0.5718994140625;1951.4366510731;0.00225311279296875;-0.571990966796875;588;1 mA;
-0.570831298828125;1951.65027407256;0.0022857666015625;-0.5706787109375;589;1 mA;
-0.56976318359375;1951.86389707202;0.00231964111328125;-0.56964111328125;590;1 mA;
-0.568695068359375;1952.07752007148;0.00235198974609375;-0.568450927734375;591;1 mA;
-0.567626953125;1952.29114307094;0.0023822021484375;-0.567474365234375;592;1 mA;
-0.566558837890625;1952.5047660704;0.00241668701171875;-0.565673828125;593;1 mA;
-0.56549072265625;1952.71838906986;0.00245513916015625;-0.565155029296875;594;1 mA;
-0.564422607421875;1952.93201206932;0.00248870849609375;-0.56414794921875;595;1 mA;
-0.5633544921875;1953.14563506878;0.00252288818359375;-0.563018798828125;596;1 mA;
-0.562286376953125;1953.35925806824;0.0025604248046875;-0.561553955078125;597;1 mA;
-0.56121826171875;1953.5728810677;0.00259368896484375;-0.56048583984375;598;1 mA;
-0.560150146484375;1953.78650406716;0.00263153076171875;-0.55987548828125;599;1 mA;
-0.55908203125;1954.00012706662;0.002666015625;-0.559051513671875;600;1 mA;
-0.558013916015625;1954.21375006608;0.00270416259765625;-0.55670166015625;601;1 mA;
-0.55694580078125;1954.42737306555;0.0027386474609375;-0.556854248046875;602;1 mA;
-0.555877685546875;1954.64099606501;0.00278167724609375;-0.5556640625;603;1 mA;
-0.5548095703125;1954.85461906447;0.0028179931640625;-0.55462646484375;604;1 mA;
-0.553741455078125;1955.06824206393;0.00285675048828125;-0.55352783203125;605;1 mA;
-0.55267333984375;1955.28186506339;0.00289642333984375;-0.552642822265625;606;1 mA;
-0.551605224609375;1955.49548806285;0.0029351806640625;-0.55169677734375;607;1 mA;
-0.550537109375;1955.70911106231;0.0029736328125;-0.550140380859375;608;1 mA;
-0.549468994140625;1955.92273406177;0.003016357421875;-0.549102783203125;609;1 mA;
-0.54840087890625;1956.13635706123;0.0030572509765625;-0.54736328125;610;1 mA;
-0.547332763671875;1956.34998006069;0.00309722900390625;-0.547149658203125;611;1 mA;
-0.5462646484375;1956.56360306015;0.003138427734375;-0.545806884765625;612;1 mA;
-0.545196533203125;1956.77722605961;0.0031854248046875;-0.54473876953125;613;1 mA;
-0.54412841796875;1956.99084905907;0.0032269287109375;-0.54400634765625;614;1 mA;
-0.543060302734375;1957.20447205853;0.00327301025390625;-0.5428466796875;615;1 mA;
-0.5419921875;1957.41809505799;0.0033160400390625;-0.540771484375;616;1 mA;
-0.540924072265625;1957.63171805746;0.00336395263671875;-0.53973388671875;617;1 mA;
-0.53985595703125;1957.84534105692;0.0034063720703125;-0.539825439453125;618;1 mA;
-0.538787841796875;1958.05896405638;0.0034527587890625;-0.539276123046875;619;1 mA;
-0.5377197265625;1958.27258705584;0.00349456787109375;-0.538604736328125;620;1 mA;
-0.536651611328125;1958.4862100553;0.003544921875;-0.535614013671875;621;1 mA;
-0.53558349609375;1958.69983305476;0.00359405517578125;-0.535125732421875;622;1 mA;
-0.534515380859375;1958.91345605422;0.0036383056640625;-0.53448486328125;623;1 mA;
-0.533447265625;1959.12707905368;0.00368255615234375;-0.53363037109375;624;1 mA;
-0.532379150390625;1959.34070205314;0.00373291015625;-0.53289794921875;625;1 mA;
-0.53131103515625;1959.5543250526;0.003780517578125;-0.531402587890625;626;1 mA;
-0.530242919921875;1959.76794805206;0.00382965087890625;-0.529510498046875;627;1 mA;
-0.5291748046875;1959.98157105152;0.0038775634765625;-0.529205322265625;628;1 mA;
-0.528106689453125;1960.19519405098;0.0039276123046875;-0.527374267578125;629;1 mA;
-0.52703857421875;1960.40881705044;0.00397796630859375;-0.526519775390625;630;1 mA;
-0.525970458984375;1960.6224400499;0.00403106689453125;-0.525421142578125;631;1 mA;
-0.52490234375;1960.83606304936;0.00407928466796875;-0.524169921875;632;1 mA;
-0.523834228515625;1961.04968604883;0.00413238525390625;-0.5235595703125;633;1 mA;
-0.52276611328125;1961.26330904829;0.00418304443359375;-0.523895263671875;634;1 mA;
-0.521697998046875;1961.47693204775;0.00423675537109375;-0.5218505859375;635;1 mA;
-0.5206298828125;1961.69055504721;0.00428192138671875;-0.520660400390625;636;1 mA;
-0.519561767578125;1961.90417804667;0.0043365478515625;-0.51947021484375;637;1 mA;
-0.51849365234375;1962.11780104613;0.0043902587890625;-0.518646240234375;638;1 mA;
-0.517425537109375;1962.33142404559;0.0044415283203125;-0.517181396484375;639;1 mA;
-0.516357421875;1962.54504704505;0.00449188232421875;-0.514923095703125;640;1 mA;
-0.515289306640625;1962.75867004451;0.0045501708984375;-0.5152587890625;641;1 mA;
-0.51422119140625;1962.97229304397;0.00460113525390625;-0.51397705078125;642;1 mA;
-0.513153076171875;1963.18591604343;0.0046527099609375;-0.5135498046875;643;1 mA;
-0.5120849609375;1963.39953904289;0.00470703125;-0.5130615234375;644;1 mA;
-0.511016845703125;1963.61316204235;0.00476043701171875;-0.51116943359375;645;1 mA;
-0.50994873046875;1963.82678504181;0.004810791015625;-0.509765625;646;1 mA;
-0.508880615234375;1964.04040804127;0.00486541748046875;-0.50958251953125;647;1 mA;
-0.5078125;1964.25403104074;0.00491424560546875;-0.507293701171875;648;1 mA;
-0.506744384765625;1964.4676540402;0.00497161865234375;-0.5067138671875;649;1 mA;
-0.50567626953125;1964.68127703966;0.00502532958984375;-0.50579833984375;650;1 mA;Current overload
-0.504608154296875;1964.89490003912;0.00508026123046875;-0.504669189453125;651;1 mA;Current overload
-0.5035400390625;1965.10852303858;0.00513214111328125;-0.503082275390625;652;1 mA;Current overload
-0.502471923828125;1965.32214603804;0.0051898193359375;-0.50250244140625;653;1 mA;Current overload
-0.50140380859375;1965.5357690375;0.0052423095703125;-0.501251220703125;654;1 mA;Current overload
-0.500335693359375;1965.74939203696;0.00529449462890625;-0.500762939453125;655;1 mA;Current overload
-0.499267578125;1965.96301503642;0.0053460693359375;-0.4990234375;656;1 mA;Current overload
