Potential applied (V);Time (s);WE(1).Current (A);WE(1).Potential (V);Index;Current range
-1.19888305664063;821.513191925879;-0.000320037841796875;-1.199951171875;1;1 mA
-1.19781494140625;821.726814925339;-0.00024066162109375;-1.19873046875;2;1 mA
-1.19674682617188;821.9404379248;-0.000203521728515625;-1.1993408203125;3;1 mA
-1.1956787109375;822.154060924261;-0.000181671142578125;-1.1956787109375;4;1 mA
-1.19461059570313;822.367683923721;-0.000167327880859375;-1.195068359375;5;1 mA
-1.19354248046875;822.581306923182;-0.000156890869140625;-1.1944580078125;6;1 mA
-1.19247436523438;822.794929922643;-0.00014862060546875;-1.1920166015625;7;1 mA
-1.19140625;823.008552922103;-0.000142822265625;-1.19171142578125;8;1 mA
-1.19033813476563;823.222175921564;-0.000137451171875;-1.19110107421875;9;1 mA
-1.18927001953125;823.435798921024;-0.00013323974609375;-1.18988037109375;10;1 mA
-1.18820190429688;823.649421920485;-0.000130035400390625;-1.19049072265625;11;1 mA
-1.1871337890625;823.863044919946;-0.000127532958984375;-1.18896484375;12;1 mA
-1.18606567382813;824.076667919406;-0.000124847412109375;-1.1865234375;13;1 mA
-1.18499755859375;824.290290918867;-0.000122955322265625;-1.18560791015625;14;1 mA
-1.18392944335938;824.503913918328;-0.000121490478515625;-1.18408203125;15;1 mA
-1.182861328125;824.717536917788;-0.000119720458984375;-1.182861328125;16;1 mA
-1.18179321289063;824.931159917249;-0.000118255615234375;-1.18194580078125;17;1 mA
-1.18072509765625;825.14478291671;-0.00011712646484375;-1.181640625;18;1 mA
-1.17965698242188;825.35840591617;-0.000115570068359375;-1.17950439453125;19;1 mA
-1.1785888671875;825.572028915631;-0.000114593505859375;-1.1798095703125;20;1 mA
-1.17752075195313;825.785651915092;-0.000113800048828125;-1.177978515625;21;1 mA
-1.17645263671875;825.999274914552;-0.00011279296875;-1.17767333984375;22;1 mA
-1.17538452148438;826.212897914013;-0.00011181640625;-1.1761474609375;23;1 mA
-1.17431640625;826.426520913474;-0.00011138916015625;-1.1749267578125;24;1 mA
-1.17324829101563;826.640143912934;-0.0001102294921875;-1.1749267578125;25;1 mA
-1.17218017578125;826.853766912395;-0.000109466552734375;-1.17279052734375;26;1 mA
-1.17111206054688;827.067389911856;-0.00010882568359375;-1.1724853515625;27;1 mA
-1.1700439453125;827.281012911316;-0.000107879638671875;-1.1700439453125;28;1 mA
-1.16897583007813;827.494635910777;-0.0001068115234375;-1.16912841796875;29;1 mA
-1.16790771484375;827.708258910238;-0.000106353759765625;-1.16912841796875;30;1 mA
-1.16683959960938;827.921881909698;-0.00010552978515625;-1.1676025390625;31;1 mA
-1.165771484375;828.135504909159;-0.00010443115234375;-1.1669921875;32;1 mA
-1.16470336914063;828.349127908619;-0.000103729248046875;-1.1651611328125;33;1 mA
-1.16363525390625;828.56275090808;-0.000102874755859375;-1.165771484375;34;1 mA
-1.16256713867188;828.776373907541;-0.000101898193359375;-1.16302490234375;35;1 mA
-1.1614990234375;828.989996907001;-0.000101165771484375;-1.16363525390625;36;1 mA
-1.16043090820313;829.203619906462;-0.000100189208984375;-1.160888671875;37;1 mA
-1.15936279296875;829.417242905923;-9.9212646484375E-05;-1.16058349609375;38;1 mA
-1.15829467773438;829.630865905383;-9.8358154296875E-05;-1.15936279296875;39;1 mA
-1.1572265625;829.844488904844;-9.783935546875E-05;-1.15814208984375;40;1 mA
-1.15615844726563;830.058111904305;-9.6343994140625E-05;-1.15753173828125;41;1 mA
-1.15509033203125;830.271734903765;-9.55810546875E-05;-1.15570068359375;42;1 mA
-1.15402221679688;830.485357903226;-9.4879150390625E-05;-1.15478515625;43;100 µA
-1.1529541015625;830.698980902687;-9.3597412109375E-05;-1.1529541015625;44;100 µA
-1.15188598632813;830.912603902147;-9.2437744140625E-05;-1.153564453125;45;100 µA
-1.15081787109375;831.126226901608;-9.1827392578125E-05;-1.1517333984375;46;100 µA
-1.14974975585938;831.339849901069;-9.0576171875E-05;-1.14898681640625;47;100 µA
-1.148681640625;831.553472900529;-8.966064453125E-05;-1.14898681640625;48;100 µA
-1.14761352539063;831.76709589999;-8.892822265625E-05;-1.14898681640625;49;100 µA
-1.14654541015625;831.980718899451;-8.7615966796875E-05;-1.146240234375;50;100 µA
-1.14547729492188;832.194341898911;-8.648681640625E-05;-1.14593505859375;51;100 µA
-1.1444091796875;832.407964898372;-8.5845947265625E-05;-1.14593505859375;52;100 µA
-1.14334106445313;832.621587897833;-8.465576171875E-05;-1.143798828125;53;100 µA
-1.14227294921875;832.835210897293;-8.331298828125E-05;-1.14288330078125;54;100 µA
-1.14120483398438;833.048833896754;-8.2733154296875E-05;-1.1419677734375;55;100 µA
-1.14013671875;833.262456896215;-8.1756591796875E-05;-1.14227294921875;56;100 µA
-1.13906860351563;833.476079895675;-8.02001953125E-05;-1.1395263671875;57;100 µA
-1.13800048828125;833.689702895136;-7.965087890625E-05;-1.138916015625;58;100 µA
-1.13693237304688;833.903325894596;-7.867431640625E-05;-1.1370849609375;59;100 µA
-1.1358642578125;834.116948894057;-7.7362060546875E-05;-1.136474609375;60;100 µA
-1.13479614257813;834.330571893518;-7.659912109375E-05;-1.13555908203125;61;100 µA
-1.13372802734375;834.544194892978;-7.5714111328125E-05;-1.1346435546875;62;100 µA
-1.13265991210938;834.757817892439;-7.4493408203125E-05;-1.13372802734375;63;100 µA
-1.131591796875;834.9714408919;-7.379150390625E-05;-1.1328125;64;100 µA
-1.13052368164063;835.18506389136;-7.2845458984375E-05;-1.1309814453125;65;100 µA
-1.12945556640625;835.398686890821;-7.1533203125E-05;-1.13006591796875;66;100 µA
-1.12838745117188;835.612309890282;-7.073974609375E-05;-1.1297607421875;67;100 µA
-1.1273193359375;835.825932889742;-7.0220947265625E-05;-1.12701416015625;68;100 µA
-1.12625122070313;836.039555889203;-6.866455078125E-05;-1.1273193359375;69;100 µA
-1.12518310546875;836.253178888664;-6.793212890625E-05;-1.12762451171875;70;100 µA
-1.12411499023438;836.466801888124;-6.7413330078125E-05;-1.124267578125;71;100 µA
-1.123046875;836.680424887585;-6.6314697265625E-05;-1.12396240234375;72;100 µA
-1.12197875976563;836.894047887046;-6.5277099609375E-05;-1.1224365234375;73;100 µA
-1.12091064453125;837.107670886506;-6.48193359375E-05;-1.1212158203125;74;100 µA
-1.11984252929688;837.321293885967;-6.3812255859375E-05;-1.12030029296875;75;100 µA
-1.1187744140625;837.534916885428;-6.280517578125E-05;-1.11968994140625;76;100 µA
-1.11770629882813;837.748539884888;-6.2255859375E-05;-1.11907958984375;77;100 µA
-1.11663818359375;837.962162884349;-6.1248779296875E-05;-1.11724853515625;78;100 µA
-1.11557006835938;838.17578588381;-6.036376953125E-05;-1.11602783203125;79;100 µA
-1.114501953125;838.38940888327;-5.9844970703125E-05;-1.1151123046875;80;100 µA
-1.11343383789063;838.603031882731;-5.8868408203125E-05;-1.1138916015625;81;100 µA
-1.11236572265625;838.816654882192;-5.7708740234375E-05;-1.11175537109375;82;100 µA
-1.11129760742188;839.030277881652;-5.7342529296875E-05;-1.112060546875;83;100 µA
-1.1102294921875;839.243900881113;-5.6640625E-05;-1.1090087890625;84;100 µA
-1.10916137695313;839.457523880573;-5.5419921875E-05;-1.1083984375;85;100 µA
-1.10809326171875;839.671146880034;-5.5267333984375E-05;-1.10870361328125;86;100 µA
-1.10702514648438;839.884769879495;-5.4473876953125E-05;-1.10687255859375;87;100 µA
-1.10595703125;840.098392878955;-5.3314208984375E-05;-1.1065673828125;88;100 µA
-1.10488891601563;840.312015878416;-5.2978515625E-05;-1.10504150390625;89;100 µA
-1.10382080078125;840.525638877877;-5.2215576171875E-05;-1.10443115234375;90;100 µA
-1.10275268554688;840.739261877337;-5.1025390625E-05;-1.10321044921875;91;100 µA
-1.1016845703125;840.952884876798;-5.072021484375E-05;-1.102294921875;92;100 µA
-1.10061645507813;841.166507876259;-5.0018310546875E-05;-1.10198974609375;93;100 µA
-1.09954833984375;841.380130875719;-4.901123046875E-05;-1.0986328125;94;100 µA
-1.09848022460938;841.59375387518;-4.87060546875E-05;-1.09893798828125;95;100 µA
-1.097412109375;841.807376874641;-4.8126220703125E-05;-1.09832763671875;96;100 µA
-1.09634399414063;842.020999874101;-4.7149658203125E-05;-1.09649658203125;97;100 µA
-1.09527587890625;842.234622873562;-4.67529296875E-05;-1.09588623046875;98;100 µA
-1.09420776367188;842.448245873023;-4.6417236328125E-05;-1.09405517578125;99;100 µA
-1.0931396484375;842.661868872483;-4.5440673828125E-05;-1.09344482421875;100;100 µA
-1.09207153320313;842.875491871944;-4.4952392578125E-05;-1.09222412109375;101;100 µA
-1.09100341796875;843.089114871405;-4.4708251953125E-05;-1.0931396484375;102;100 µA
-1.08993530273438;843.302737870865;-4.364013671875E-05;-1.09100341796875;103;100 µA
-1.0888671875;843.516360870326;-4.327392578125E-05;-1.09039306640625;104;100 µA
-1.08779907226563;843.729983869787;-4.2999267578125E-05;-1.0888671875;105;100 µA
-1.08673095703125;843.943606869247;-4.2205810546875E-05;-1.0858154296875;106;100 µA
-1.08566284179688;844.157229868708;-4.1595458984375E-05;-1.08734130859375;107;100 µA
-1.0845947265625;844.370852868169;-4.150390625E-05;-1.085205078125;108;100 µA
-1.08352661132813;844.584475867629;-4.0771484375E-05;-1.08428955078125;109;100 µA
-1.08245849609375;844.79809886709;-4.0069580078125E-05;-1.08367919921875;110;100 µA
-1.08139038085938;845.01172186655;-4.00390625E-05;-1.0821533203125;111;100 µA
-1.080322265625;845.225344866011;-3.94287109375E-05;-1.08154296875;112;100 µA
-1.07925415039063;845.438967865472;-3.8726806640625E-05;-1.0797119140625;113;100 µA
-1.07818603515625;845.652590864932;-3.8543701171875E-05;-1.0791015625;114;100 µA
-1.07711791992188;845.866213864393;-3.80859375E-05;-1.077880859375;115;100 µA
-1.0760498046875;846.079836863854;-3.7322998046875E-05;-1.07635498046875;116;100 µA
-1.07498168945313;846.293459863314;-3.7200927734375E-05;-1.07574462890625;117;100 µA
-1.07391357421875;846.507082862775;-3.6590576171875E-05;-1.07513427734375;118;100 µA
-1.07284545898438;846.720705862236;-3.5614013671875E-05;-1.07391357421875;119;100 µA
-1.07177734375;846.934328861696;-3.5736083984375E-05;-1.07269287109375;120;100 µA
-1.07070922851563;847.147951861157;-3.5369873046875E-05;-1.07086181640625;121;100 µA
-1.06964111328125;847.361574860618;-3.466796875E-05;-1.06964111328125;122;100 µA
-1.06857299804688;847.575197860078;-3.45458984375E-05;-1.0687255859375;123;100 µA
-1.0675048828125;847.788820859539;-3.4149169921875E-05;-1.0693359375;124;100 µA
-1.06643676757813;848.002443859;-3.3477783203125E-05;-1.06689453125;125;100 µA
-1.06536865234375;848.21606685846;-3.338623046875E-05;-1.065673828125;126;100 µA
-1.06430053710938;848.429689857921;-3.3050537109375E-05;-1.065673828125;127;100 µA
-1.063232421875;848.643312857382;-3.253173828125E-05;-1.0638427734375;128;100 µA
-1.06216430664063;848.856935856842;-3.22265625E-05;-1.06292724609375;129;100 µA
-1.06109619140625;849.070558856303;-3.216552734375E-05;-1.063232421875;130;100 µA
-1.06002807617188;849.284181855764;-3.155517578125E-05;-1.0601806640625;131;100 µA
-1.0589599609375;849.497804855224;-3.131103515625E-05;-1.05926513671875;132;100 µA
-1.05789184570313;849.711427854685;-3.125E-05;-1.05804443359375;133;100 µA
-1.05682373046875;849.925050854146;-3.0426025390625E-05;-1.0577392578125;134;100 µA
-1.05575561523438;850.138673853606;-3.0242919921875E-05;-1.05621337890625;135;100 µA
-1.0546875;850.352296853067;-3.0364990234375E-05;-1.05621337890625;136;100 µA
-1.05361938476563;850.565919852527;-2.960205078125E-05;-1.0546875;137;100 µA
-1.05255126953125;850.779542851988;-2.9296875E-05;-1.053466796875;138;100 µA
-1.05148315429688;850.993165851449;-2.9296875E-05;-1.0528564453125;139;100 µA
-1.0504150390625;851.206788850909;-2.886962890625E-05;-1.05255126953125;140;100 µA
-1.04934692382813;851.42041185037;-2.8472900390625E-05;-1.0504150390625;141;100 µA
-1.04827880859375;851.634034849831;-2.84423828125E-05;-1.04888916015625;142;100 µA
-1.04721069335938;851.847657849291;-2.79541015625E-05;-1.04827880859375;143;100 µA
-1.046142578125;852.061280848752;-2.764892578125E-05;-1.046142578125;144;100 µA
-1.04507446289063;852.274903848213;-2.7618408203125E-05;-1.04583740234375;145;100 µA
-1.04400634765625;852.488526847673;-2.7252197265625E-05;-1.044921875;146;100 µA
-1.04293823242188;852.702149847134;-2.67333984375E-05;-1.0430908203125;147;100 µA
-1.0418701171875;852.915772846595;-2.6824951171875E-05;-1.04217529296875;148;100 µA
-1.04080200195313;853.129395846055;-2.655029296875E-05;-1.04095458984375;149;100 µA
-1.03973388671875;853.343018845516;-2.587890625E-05;-1.04156494140625;150;100 µA
-1.03866577148438;853.556641844977;-2.60009765625E-05;-1.03973388671875;151;100 µA
-1.03759765625;853.770264844437;-2.606201171875E-05;-1.03790283203125;152;100 µA
-1.03652954101563;853.983887843898;-2.5299072265625E-05;-1.0357666015625;153;100 µA
-1.03546142578125;854.197510843359;-2.545166015625E-05;-1.03607177734375;154;100 µA
-1.03439331054688;854.411133842819;-2.490234375E-05;-1.03485107421875;155;100 µA
-1.0333251953125;854.62475684228;-2.459716796875E-05;-1.03240966796875;156;100 µA
-1.03225708007813;854.838379841741;-2.4627685546875E-05;-1.03271484375;157;100 µA
-1.03118896484375;855.052002841201;-2.4505615234375E-05;-1.03271484375;158;100 µA
-1.03012084960938;855.265625840662;-2.3895263671875E-05;-1.03118896484375;159;100 µA
-1.029052734375;855.479248840123;-2.4078369140625E-05;-1.0302734375;160;100 µA
-1.02798461914063;855.692871839583;-2.398681640625E-05;-1.02813720703125;161;100 µA
-1.02691650390625;855.906494839044;-2.3406982421875E-05;-1.02813720703125;162;100 µA
-1.02584838867188;856.120117838504;-2.3284912109375E-05;-1.0260009765625;163;100 µA
-1.0247802734375;856.333740837965;-2.34375E-05;-1.0247802734375;164;100 µA
-1.02371215820313;856.547363837426;-2.288818359375E-05;-1.0247802734375;165;100 µA
-1.02264404296875;856.760986836886;-2.2705078125E-05;-1.02294921875;166;100 µA
-1.02157592773438;856.974609836347;-2.2979736328125E-05;-1.02264404296875;167;100 µA
-1.0205078125;857.188232835808;-2.264404296875E-05;-1.0211181640625;168;100 µA
-1.01943969726563;857.401855835268;-2.215576171875E-05;-1.021728515625;169;100 µA
-1.01837158203125;857.615478834729;-2.2308349609375E-05;-1.01776123046875;170;100 µA
-1.01730346679688;857.82910183419;-2.191162109375E-05;-1.01806640625;171;100 µA
-1.0162353515625;858.04272483365;-2.166748046875E-05;-1.01715087890625;172;100 µA
-1.01516723632813;858.256347833111;-2.1881103515625E-05;-1.01531982421875;173;100 µA
-1.01409912109375;858.469970832572;-2.166748046875E-05;-1.01470947265625;174;100 µA
-1.01303100585938;858.683593832032;-2.139892578125E-05;-1.01348876953125;175;100 µA
-1.011962890625;858.897216831493;-2.1240234375E-05;-1.01226806640625;176;100 µA
-1.01089477539063;859.110839830954;-2.1502685546875E-05;-1.0113525390625;177;100 µA
-1.00982666015625;859.324462830414;-2.091064453125E-05;-1.01226806640625;178;100 µA
-1.00875854492188;859.538085829875;-2.10723876953125E-05;-1.00921630859375;179;100 µA
-1.0076904296875;859.751708829336;-2.099609375E-05;-1.0076904296875;180;100 µA
-1.00662231445313;859.965331828796;-2.0294189453125E-05;-1.00738525390625;181;100 µA
-1.00555419921875;860.178954828257;-2.0550537109375E-05;-1.00830078125;182;100 µA
-1.00448608398438;860.392577827718;-2.0233154296875E-05;-1.00555419921875;183;100 µA
-1.00341796875;860.606200827178;-1.9805908203125E-05;-1.0040283203125;184;100 µA
-1.00234985351563;860.819823826639;-2.00714111328125E-05;-1.0028076171875;185;100 µA
-1.00128173828125;861.0334468261;-2.01690673828125E-05;-1.002197265625;186;100 µA
-1.00021362304688;861.24706982556;-1.95953369140625E-05;-1.00067138671875;187;100 µA
-0.9991455078125;861.460692825021;-1.9317626953125E-05;-0.99884033203125;188;100 µA
-0.998077392578125;861.674315824481;-1.9720458984375E-05;-0.99884033203125;189;100 µA
-0.99700927734375;861.887938823942;-1.9219970703125E-05;-0.99609375;190;100 µA
-0.995941162109375;862.101561823403;-1.903076171875E-05;-0.997314453125;191;100 µA
-0.994873046875;862.315184822863;-1.91497802734375E-05;-0.9954833984375;192;100 µA
-0.993804931640625;862.528807822324;-1.87591552734375E-05;-0.99395751953125;193;100 µA
-0.99273681640625;862.742430821785;-1.85516357421875E-05;-0.99273681640625;194;100 µA
-0.991668701171875;862.956053821245;-1.87286376953125E-05;-0.9918212890625;195;100 µA
-0.9906005859375;863.169676820706;-1.839599609375E-05;-0.99212646484375;196;100 µA
-0.989532470703125;863.383299820167;-1.80816650390625E-05;-0.9893798828125;197;100 µA
-0.98846435546875;863.596922819627;-1.817626953125E-05;-0.98846435546875;198;100 µA
-0.987396240234375;863.810545819088;-1.79168701171875E-05;-0.98663330078125;199;100 µA
-0.986328125;864.024168818549;-1.74591064453125E-05;-0.9869384765625;200;100 µA
-0.985260009765625;864.237791818009;-1.767578125E-05;-0.98602294921875;201;100 µA
-0.98419189453125;864.45141481747;-1.75872802734375E-05;-0.98541259765625;202;100 µA
-0.983123779296875;864.665037816931;-1.700439453125E-05;-0.9832763671875;203;100 µA
-0.9820556640625;864.878660816391;-1.72454833984375E-05;-0.9844970703125;204;100 µA
-0.980987548828125;865.092283815852;-1.70745849609375E-05;-0.98236083984375;205;100 µA
-0.97991943359375;865.305906815313;-1.66046142578125E-05;-0.9796142578125;206;100 µA
-0.978851318359375;865.519529814773;-1.66656494140625E-05;-0.9796142578125;207;100 µA
-0.977783203125;865.733152814234;-1.66778564453125E-05;-0.97900390625;208;100 µA
-0.976715087890625;865.946775813695;-1.632080078125E-05;-0.97808837890625;209;100 µA
-0.97564697265625;866.160398813155;-1.63909912109375E-05;-0.97564697265625;210;100 µA
-0.974578857421875;866.374021812616;-1.6326904296875E-05;-0.9747314453125;211;100 µA
-0.9735107421875;866.587644812077;-1.5850830078125E-05;-0.97412109375;212;100 µA
-0.972442626953125;866.801267811537;-1.583251953125E-05;-0.972900390625;213;100 µA
-0.97137451171875;867.014890810998;-1.5985107421875E-05;-0.97259521484375;214;100 µA
-0.970306396484375;867.228513810458;-1.54510498046875E-05;-0.97076416015625;215;100 µA
-0.96923828125;867.442136809919;-1.53778076171875E-05;-0.96954345703125;216;100 µA
-0.968170166015625;867.65575980938;-1.55914306640625E-05;-0.96954345703125;217;100 µA
-0.96710205078125;867.86938280884;-1.51947021484375E-05;-0.96832275390625;218;100 µA
-0.966033935546875;868.083005808301;-1.49871826171875E-05;-0.9674072265625;219;100 µA
-0.9649658203125;868.296628807762;-1.51153564453125E-05;-0.9661865234375;220;100 µA
-0.963897705078125;868.510251807222;-1.4801025390625E-05;-0.96435546875;221;100 µA
-0.96282958984375;868.723874806683;-1.463623046875E-05;-0.96282958984375;222;100 µA
-0.961761474609375;868.937497806144;-1.4862060546875E-05;-0.9625244140625;223;100 µA
-0.960693359375;869.151120805604;-1.45965576171875E-05;-0.9613037109375;224;100 µA
-0.959625244140625;869.364743805065;-1.4190673828125E-05;-0.96038818359375;225;100 µA
-0.95855712890625;869.578366804526;-1.44805908203125E-05;-0.9588623046875;226;100 µA
-0.957489013671875;869.791989803986;-1.4306640625E-05;-0.95672607421875;227;100 µA
-0.9564208984375;870.005612803447;-1.37939453125E-05;-0.95703125;228;100 µA
-0.955352783203125;870.219235802908;-1.4080810546875E-05;-0.95672607421875;229;100 µA
-0.95428466796875;870.432858802368;-1.397705078125E-05;-0.95550537109375;230;100 µA
-0.953216552734375;870.646481801829;-1.346435546875E-05;-0.95306396484375;231;100 µA
-0.9521484375;870.86010480129;-1.36962890625E-05;-0.9521484375;232;100 µA
-0.951080322265625;871.07372780075;-1.35406494140625E-05;-0.9515380859375;233;100 µA
-0.95001220703125;871.287350800211;-1.32080078125E-05;-0.9503173828125;234;100 µA
-0.948944091796875;871.500973799672;-1.33026123046875E-05;-0.9490966796875;235;100 µA
-0.9478759765625;871.714596799132;-1.32476806640625E-05;-0.94818115234375;236;100 µA
-0.946807861328125;871.928219798593;-1.27960205078125E-05;-0.94696044921875;237;100 µA
-0.94573974609375;872.141842798054;-1.28631591796875E-05;-0.94573974609375;238;100 µA
-0.944671630859375;872.355465797514;-1.300048828125E-05;-0.94482421875;239;100 µA
-0.943603515625;872.569088796975;-1.24908447265625E-05;-0.94451904296875;240;100 µA
-0.942535400390625;872.782711796435;-1.24786376953125E-05;-0.9423828125;241;100 µA
-0.94146728515625;872.996334795896;-1.2774658203125E-05;-0.9423828125;242;100 µA
-0.940399169921875;873.209957795357;-1.2200927734375E-05;-0.94146728515625;243;100 µA
-0.9393310546875;873.423580794817;-1.21185302734375E-05;-0.93994140625;244;100 µA
-0.938262939453125;873.637203794278;-1.23870849609375E-05;-0.93994140625;245;100 µA
-0.93719482421875;873.850826793739;-1.20452880859375E-05;-0.93719482421875;246;100 µA
-0.936126708984375;874.064449793199;-1.1865234375E-05;-0.93719482421875;247;100 µA
-0.93505859375;874.27807279266;-1.21124267578125E-05;-0.93597412109375;248;100 µA
-0.933990478515625;874.491695792121;-1.17340087890625E-05;-0.93475341796875;249;100 µA
-0.93292236328125;874.705318791581;-1.1553955078125E-05;-0.9356689453125;250;100 µA
-0.931854248046875;874.918941791042;-1.182861328125E-05;-0.9326171875;251;100 µA
-0.9307861328125;875.132564790503;-1.15509033203125E-05;-0.93170166015625;252;100 µA
-0.929718017578125;875.346187789963;-1.11297607421875E-05;-0.93017578125;253;100 µA
-0.92864990234375;875.559810789424;-1.158447265625E-05;-0.92987060546875;254;100 µA
-0.927581787109375;875.773433788885;-1.136474609375E-05;-0.9283447265625;255;100 µA
-0.926513671875;875.987056788345;-1.09100341796875E-05;-0.92864990234375;256;100 µA
-0.925445556640625;876.200679787806;-1.12762451171875E-05;-0.92620849609375;257;100 µA
-0.92437744140625;876.414302787267;-1.123046875E-05;-0.9246826171875;258;100 µA
-0.923309326171875;876.627925786727;-1.07696533203125E-05;-0.9234619140625;259;100 µA
-0.9222412109375;876.841548786188;-1.10321044921875E-05;-0.9228515625;260;100 µA
-0.921173095703125;877.055171785649;-1.103515625E-05;-0.92132568359375;261;100 µA
-0.92010498046875;877.268794785109;-1.072998046875E-05;-0.92041015625;262;100 µA
-0.919036865234375;877.48241778457;-1.07635498046875E-05;-0.91949462890625;263;100 µA
-0.91796875;877.696040784031;-1.092529296875E-05;-0.91827392578125;264;100 µA
-0.916900634765625;877.909663783491;-1.04461669921875E-05;-0.91766357421875;265;100 µA
-0.91583251953125;878.123286782952;-1.06170654296875E-05;-0.916748046875;266;100 µA
-0.914764404296875;878.336909782412;-1.07666015625E-05;-0.914306640625;267;100 µA
-0.9136962890625;878.550532781873;-1.03302001953125E-05;-0.91461181640625;268;100 µA
-0.912628173828125;878.764155781334;-1.03515625E-05;-0.91278076171875;269;100 µA
-0.91156005859375;878.977778780794;-1.07147216796875E-05;-0.9130859375;270;100 µA
-0.910491943359375;879.191401780255;-1.00860595703125E-05;-0.91094970703125;271;100 µA
-0.909423828125;879.405024779716;-1.01104736328125E-05;-0.90972900390625;272;100 µA
-0.908355712890625;879.618647779176;-1.05438232421875E-05;-0.90911865234375;273;100 µA
-0.90728759765625;879.832270778637;-9.930419921875E-06;-0.90911865234375;274;100 µA
-0.906219482421875;880.045893778098;-9.8968505859375E-06;-0.906982421875;275;100 µA
-0.9051513671875;880.259516777558;-1.02813720703125E-05;-0.90728759765625;276;100 µA
-0.904083251953125;880.473139777019;-9.857177734375E-06;-0.9051513671875;277;100 µA
-0.90301513671875;880.68676277648;-9.7442626953125E-06;-0.9039306640625;278;100 µA
-0.901947021484375;880.90038577594;-1.0174560546875E-05;-0.9027099609375;279;100 µA
-0.90087890625;881.114008775401;-9.7869873046875E-06;-0.90179443359375;280;100 µA
-0.899810791015625;881.327631774862;-9.6038818359375E-06;-0.90057373046875;281;100 µA
-0.89874267578125;881.541254774322;-9.9151611328125E-06;-0.89996337890625;282;100 µA
-0.897674560546875;881.754877773783;-9.6160888671875E-06;-0.89874267578125;283;100 µA
-0.8966064453125;881.968500773244;-9.2620849609375E-06;-0.89752197265625;284;100 µA
-0.895538330078125;882.182123772704;-1.009521484375E-05;-0.8966064453125;285;10 µA
-0.89447021484375;882.395746772165;-9.698486328125E-06;-0.8966064453125;286;10 µA
-0.893402099609375;882.609369771626;-9.04541015625E-06;-0.89324951171875;287;10 µA
-0.892333984375;882.822992771086;-9.9273681640625E-06;-0.8929443359375;288;10 µA
-0.891265869140625;883.036615770547;-9.5489501953125E-06;-0.8917236328125;289;10 µA
-0.89019775390625;883.250238770008;-8.807373046875E-06;-0.8917236328125;290;10 µA
-0.889129638671875;883.463861769468;-9.19189453125E-06;-0.89080810546875;291;10 µA
-0.8880615234375;883.677484768929;-9.3292236328125E-06;-0.88836669921875;292;10 µA
-0.886993408203125;883.891107768389;-8.514404296875E-06;-0.887451171875;293;10 µA
-0.88592529296875;884.10473076785;-8.7432861328125E-06;-0.88653564453125;294;10 µA
-0.884857177734375;884.318353767311;-8.795166015625E-06;-0.88592529296875;295;10 µA
-0.8837890625;884.531976766771;-8.233642578125E-06;-0.88470458984375;296;10 µA
-0.882720947265625;884.745599766232;-8.5723876953125E-06;-0.88348388671875;297;10 µA
-0.88165283203125;884.959222765693;-8.6395263671875E-06;-0.8831787109375;298;10 µA
-0.880584716796875;885.172845765153;-7.7301025390625E-06;-0.88043212890625;299;10 µA
-0.8795166015625;885.386468764614;-7.8338623046875E-06;-0.88104248046875;300;10 µA
-0.878448486328125;885.600091764075;-8.2763671875E-06;-0.87860107421875;301;10 µA
-0.87738037109375;885.813714763535;-7.1868896484375E-06;-0.877685546875;302;10 µA
-0.876312255859375;886.027337762996;-7.1746826171875E-06;-0.8782958984375;303;10 µA
-0.875244140625;886.240960762457;-7.8521728515625E-06;-0.87646484375;304;10 µA
-0.874176025390625;886.454583761917;-6.817626953125E-06;-0.87432861328125;305;10 µA
-0.87310791015625;886.668206761378;-6.671142578125E-06;-0.87432861328125;306;10 µA
-0.872039794921875;886.881829760839;-7.2509765625E-06;-0.87310791015625;307;10 µA
-0.8709716796875;887.095452760299;-6.524658203125E-06;-0.87188720703125;308;10 µA
-0.869903564453125;887.30907575976;-6.2835693359375E-06;-0.87066650390625;309;10 µA
-0.86883544921875;887.522698759221;-6.67724609375E-06;-0.87066650390625;310;10 µA
-0.867767333984375;887.736321758681;-6.15234375E-06;-0.867919921875;311;10 µA
-0.86669921875;887.949944758142;-5.816650390625E-06;-0.8673095703125;312;10 µA
-0.865631103515625;888.163567757603;-6.097412109375E-06;-0.8660888671875;313;10 µA
-0.86456298828125;888.377190757063;-5.657958984375E-06;-0.8636474609375;314;10 µA
-0.863494873046875;888.590813756524;-4.9774169921875E-06;-0.865478515625;315;10 µA
-0.8624267578125;888.804436755985;-5.6976318359375E-06;-0.86273193359375;316;10 µA
-0.861358642578125;889.018059755445;-5.1361083984375E-06;-0.86181640625;317;10 µA
-0.86029052734375;889.231682754906;-4.3121337890625E-06;-0.8612060546875;318;10 µA
-0.859222412109375;889.445305754366;-5.1055908203125E-06;-0.85968017578125;319;10 µA
-0.858154296875;889.658928753827;-4.888916015625E-06;-0.859375;320;10 µA
-0.857086181640625;889.872551753288;-3.912353515625E-06;-0.858154296875;321;10 µA
-0.85601806640625;890.086174752748;-4.486083984375E-06;-0.8563232421875;322;10 µA
-0.854949951171875;890.299797752209;-4.3212890625E-06;-0.855712890625;323;10 µA
-0.8538818359375;890.51342075167;-3.52783203125E-06;-0.85418701171875;324;10 µA
-0.852813720703125;890.72704375113;-3.759765625E-06;-0.8544921875;325;10 µA
-0.85174560546875;890.940666750591;-3.7872314453125E-06;-0.85296630859375;326;10 µA
-0.850677490234375;891.154289750052;-2.935791015625E-06;-0.85235595703125;327;10 µA
-0.849609375;891.367912749512;-3.277587890625E-06;-0.850830078125;328;10 µA
-0.848541259765625;891.581535748973;-3.399658203125E-06;-0.8489990234375;329;10 µA
-0.84747314453125;891.795158748434;-2.5482177734375E-06;-0.84869384765625;330;10 µA
-0.846405029296875;892.008781747894;-2.5054931640625E-06;-0.84716796875;331;10 µA
-0.8453369140625;892.222404747355;-3.094482421875E-06;-0.84625244140625;332;10 µA
-0.844268798828125;892.436027746816;-2.0172119140625E-06;-0.84503173828125;333;10 µA
-0.84320068359375;892.649650746276;-1.9317626953125E-06;-0.84442138671875;334;10 µA
-0.842132568359375;892.863273745737;-2.6336669921875E-06;-0.84320068359375;335;10 µA
-0.841064453125;893.076896745198;-1.763916015625E-06;-0.84228515625;336;10 µA
-0.839996337890625;893.290519744658;-1.446533203125E-06;-0.84136962890625;337;10 µA
-0.83892822265625;893.504142744119;-1.89208984375E-06;-0.83953857421875;338;10 µA
-0.837860107421875;893.71776574358;-1.348876953125E-06;-0.83892822265625;339;10 µA
-0.8367919921875;893.93138874304;-1.007080078125E-06;-0.83709716796875;340;10 µA
-0.835723876953125;894.145011742501;-1.4190673828125E-06;-0.83648681640625;341;10 µA
-0.83465576171875;894.358634741962;-8.392333984375E-07;-0.8349609375;342;10 µA
-0.833587646484375;894.572257741422;-1.708984375E-07;-0.8349609375;343;10 µA
-0.83251953125;894.785880740883;-9.58251953125E-07;-0.83343505859375;344;10 µA
-0.831451416015625;894.999503740343;-5.035400390625E-07;-0.83404541015625;345;10 µA
-0.83038330078125;895.213126739804;4.302978515625E-07;-0.83038330078125;346;10 µA
-0.829315185546875;895.426749739265;-1.1810302734375E-07;-0.830078125;347;1 µA
-0.8282470703125;895.640372738725;2.581787109375E-07;-0.828857421875;348;1 µA
-0.827178955078125;895.853995738186;4.0374755859375E-07;-0.828857421875;349;1 µA
-0.82611083984375;896.067618737647;1.275634765625E-07;-0.82855224609375;350;1 µA
-0.825042724609375;896.281241737107;3.7872314453125E-07;-0.8251953125;351;1 µA
-0.823974609375;896.494864736568;6.8603515625E-07;-0.82366943359375;352;1 µA
-0.822906494140625;896.708487736029;3.8970947265625E-07;-0.82366943359375;353;1 µA
-0.82183837890625;896.922110735489;5.3680419921875E-07;-0.82305908203125;354;1 µA
-0.820770263671875;897.13573373495;9.5977783203125E-07;-0.82183837890625;355;1 µA
-0.8197021484375;897.349356734411;6.707763671875E-07;-0.82061767578125;356;1 µA
-0.818634033203125;897.562979733871;8.0413818359375E-07;-0.81939697265625;357;1 µA
-0.81756591796875;897.776602733332;1.302490234375E-06;-0.81787109375;358;1 µA
-0.816497802734375;897.990225732793;1.02447509765625E-06;-0.8172607421875;359;1 µA
-0.8154296875;898.203848732253;1.04583740234375E-06;-0.81634521484375;360;1 µA
-0.814361572265625;898.417471731714;1.55303955078125E-06;-0.81329345703125;361;1 µA
-0.81329345703125;898.631094731175;1.35009765625E-06;-0.814208984375;362;1 µA
-0.812225341796875;898.844717730635;1.3897705078125E-06;-0.81329345703125;363;1 µA
-0.8111572265625;899.058340730096;1.822509765625E-06;-0.81298828125;364;1 µA
-0.810089111328125;899.271963729557;1.7034912109375E-06;-0.811767578125;365;1 µA
-0.80902099609375;899.485586729017;1.6912841796875E-06;-0.80963134765625;366;1 µA
-0.807952880859375;899.699209728478;2.11456298828125E-06;-0.8099365234375;367;1 µA
-0.806884765625;899.912832727939;2.05474853515625E-06;-0.80810546875;368;1 µA
-0.805816650390625;900.126455727399;1.99188232421875E-06;-0.8062744140625;369;1 µA
-0.80474853515625;900.34007872686;2.39990234375E-06;-0.804443359375;370;1 µA
-0.803680419921875;900.55370172632;2.52349853515625E-06;-0.80474853515625;371;1 µA
-0.8026123046875;900.767324725781;2.23968505859375E-06;-0.80413818359375;372;1 µA
-0.801544189453125;900.980947725242;2.46612548828125E-06;-0.8026123046875;373;1 µA
-0.80047607421875;901.194570724702;2.82623291015625E-06;-0.80230712890625;374;1 µA
-0.799407958984375;901.408193724163;2.56317138671875E-06;-0.799560546875;375;1 µA
-0.79833984375;901.621816723624;2.69378662109375E-06;-0.799560546875;376;1 µA
-0.797271728515625;901.835439723084;3.150634765625E-06;-0.79833984375;377;1 µA
-0.79620361328125;902.049062722545;2.8619384765625E-06;-0.7977294921875;378;1 µA
-0.795135498046875;902.262685722006;3.00445556640625E-06;-0.79620361328125;379;1 µA
-0.7940673828125;902.476308721466;3.45916748046875E-06;-0.79437255859375;380;1 µA
-0.792999267578125;902.689931720927;3.21197509765625E-06;-0.79437255859375;381;1 µA
-0.79193115234375;902.903554720388;3.3038330078125E-06;-0.7916259765625;382;1 µA
-0.790863037109375;903.117177719848;3.78875732421875E-06;-0.79132080078125;383;1 µA
-0.789794921875;903.330800719309;3.54339599609375E-06;-0.79010009765625;384;1 µA
-0.788726806640625;903.54442371877;3.65142822265625E-06;-0.78857421875;385;1 µA
-0.78765869140625;903.75804671823;4.117431640625E-06;-0.789794921875;386;1 µA
-0.786590576171875;903.971669717691;7.8857421875E-06;-0.7879638671875;387;10 µA
-0.7855224609375;904.185292717152;7.33642578125E-06;-0.7867431640625;388;10 µA
-0.784454345703125;904.398915716612;8.1878662109375E-06;-0.78460693359375;389;10 µA
-0.78338623046875;904.612538716073;8.63037109375E-06;-0.78399658203125;390;10 µA
-0.782318115234375;904.826161715534;8.0322265625E-06;-0.78277587890625;391;10 µA
-0.78125;905.039784714994;8.7646484375E-06;-0.7818603515625;392;10 µA
-0.780181884765625;905.253407714455;9.4482421875E-06;-0.78155517578125;393;10 µA
-0.77911376953125;905.467030713916;8.8653564453125E-06;-0.780029296875;394;10 µA
-0.778045654296875;905.680653713376;9.5367431640625E-06;-0.777587890625;395;10 µA
-0.7769775390625;905.894276712837;1.04766845703125E-05;-0.777587890625;396;10 µA
-0.775909423828125;906.107899712297;9.661865234375E-06;-0.77728271484375;397;10 µA
-0.77484130859375;906.321522711758;1.0064697265625E-05;-0.7757568359375;398;10 µA
-0.773773193359375;906.535145711219;1.1407470703125E-05;-0.7757568359375;399;10 µA
-0.772705078125;906.748768710679;1.0467529296875E-05;-0.77423095703125;400;10 µA
-0.771636962890625;906.96239171014;1.085205078125E-05;-0.77239990234375;401;10 µA
-0.77056884765625;907.176014709601;1.18865966796875E-05;-0.77117919921875;402;10 µA
-0.769500732421875;907.389637709061;1.165771484375E-05;-0.76873779296875;403;10 µA
-0.7684326171875;907.603260708522;1.15997314453125E-05;-0.76904296875;404;10 µA
-0.767364501953125;907.816883707983;1.27349853515625E-05;-0.76812744140625;405;10 µA
-0.76629638671875;908.030506707443;1.2359619140625E-05;-0.76812744140625;406;10 µA
-0.765228271484375;908.244129706904;1.2237548828125E-05;-0.7666015625;407;10 µA
-0.76416015625;908.457752706365;1.33880615234375E-05;-0.765380859375;408;10 µA
-0.763092041015625;908.671375705825;1.32904052734375E-05;-0.7635498046875;409;10 µA
-0.76202392578125;908.884998705286;1.265869140625E-05;-0.76263427734375;410;10 µA
-0.760955810546875;909.098621704747;1.409912109375E-05;-0.76171875;411;10 µA
-0.7598876953125;909.312244704207;1.41021728515625E-05;-0.75897216796875;412;10 µA
-0.758819580078125;909.525867703668;1.35467529296875E-05;-0.75958251953125;413;10 µA
-0.75775146484375;909.739490703129;1.4459228515625E-05;-0.75897216796875;414;10 µA
-0.756683349609375;909.953113702589;1.45599365234375E-05;-0.7574462890625;415;10 µA
-0.755615234375;910.16673670205;1.40228271484375E-05;-0.75714111328125;416;10 µA
-0.754547119140625;910.380359701511;1.4874267578125E-05;-0.75439453125;417;10 µA
-0.75347900390625;910.593982700971;1.51092529296875E-05;-0.75439453125;418;10 µA
-0.752410888671875;910.807605700432;1.47003173828125E-05;-0.7525634765625;419;10 µA
-0.7513427734375;911.021228699893;1.5362548828125E-05;-0.751953125;420;10 µA
-0.750274658203125;911.234851699353;1.61285400390625E-05;-0.74951171875;421;10 µA
-0.74920654296875;911.448474698814;1.52862548828125E-05;-0.749359130859375;422;10 µA
-0.748138427734375;911.662097698274;1.5667724609375E-05;-0.747100830078125;423;10 µA
-0.7470703125;911.875720697735;1.6741943359375E-05;-0.746856689453125;424;10 µA
-0.746002197265625;912.089343697196;1.5869140625E-05;-0.746063232421875;425;10 µA
-0.74493408203125;912.302966696656;1.591796875E-05;-0.7454833984375;426;10 µA
-0.743865966796875;912.516589696117;1.70501708984375E-05;-0.743011474609375;427;10 µA
-0.7427978515625;912.730212695578;1.64703369140625E-05;-0.7427978515625;428;10 µA
-0.741729736328125;912.943835695038;1.64764404296875E-05;-0.74169921875;429;10 µA
-0.74066162109375;913.157458694499;1.74041748046875E-05;-0.74029541015625;430;10 µA
-0.739593505859375;913.37108169396;1.69830322265625E-05;-0.739654541015625;431;10 µA
-0.738525390625;913.58470469342;1.68182373046875E-05;-0.738616943359375;432;10 µA
-0.737457275390625;913.798327692881;1.77642822265625E-05;-0.73687744140625;433;10 µA
-0.73638916015625;914.011950692342;1.75689697265625E-05;-0.7374267578125;434;10 µA
-0.735321044921875;914.225573691802;1.6943359375E-05;-0.73504638671875;435;10 µA
-0.7342529296875;914.439196691263;1.81884765625E-05;-0.734100341796875;436;10 µA
-0.733184814453125;914.652819690724;1.79718017578125E-05;-0.733306884765625;437;10 µA
-0.73211669921875;914.866442690184;1.73065185546875E-05;-0.73260498046875;438;10 µA
-0.731048583984375;915.080065689645;1.82952880859375E-05;-0.730804443359375;439;10 µA
-0.72998046875;915.293688689106;1.8402099609375E-05;-0.729522705078125;440;10 µA
-0.728912353515625;915.507311688566;1.79351806640625E-05;-0.728271484375;441;10 µA
-0.72784423828125;915.720934688027;1.866455078125E-05;-0.727264404296875;442;10 µA
-0.726776123046875;915.934557687488;1.91162109375E-05;-0.72625732421875;443;10 µA
-0.7257080078125;916.148180686948;1.8585205078125E-05;-0.72528076171875;444;10 µA
-0.724639892578125;916.361803686409;1.92138671875E-05;-0.724761962890625;445;10 µA
-0.72357177734375;916.57542668587;1.95953369140625E-05;-0.723175048828125;446;10 µA
-0.722503662109375;916.78904968533;1.87652587890625E-05;-0.722198486328125;447;10 µA
-0.721435546875;917.002672684791;1.9073486328125E-05;-0.721893310546875;448;10 µA
-0.720367431640625;917.216295684251;2.02056884765625E-05;-0.720184326171875;449;10 µA
-0.71929931640625;917.429918683712;1.95648193359375E-05;-0.71905517578125;450;10 µA
-0.718231201171875;917.643541683173;1.9464111328125E-05;-0.718719482421875;451;10 µA
-0.7171630859375;917.857164682633;2.0465087890625E-05;-0.716552734375;452;10 µA
-0.716094970703125;918.070787682094;2.03094482421875E-05;-0.716064453125;453;10 µA
-0.71502685546875;918.284410681555;2.02667236328125E-05;-0.714508056640625;454;10 µA
-0.713958740234375;918.498033681015;2.115478515625E-05;-0.71337890625;455;10 µA
-0.712890625;918.711656680476;2.09014892578125E-05;-0.7125244140625;456;10 µA
-0.711822509765625;918.925279679937;2.08282470703125E-05;-0.7110595703125;457;10 µA
-0.71075439453125;919.138902679397;2.198486328125E-05;-0.710784912109375;458;10 µA
-0.709686279296875;919.352525678858;2.22564697265625E-05;-0.709625244140625;459;10 µA
-0.7086181640625;919.566148678319;2.1417236328125E-05;-0.7083740234375;460;10 µA
-0.707550048828125;919.779771677779;2.22808837890625E-05;-0.708343505859375;461;10 µA
-0.70648193359375;919.99339467724;2.23358154296875E-05;-0.7061767578125;462;10 µA
-0.705413818359375;920.207017676701;2.1942138671875E-05;-0.70489501953125;463;10 µA
-0.704345703125;920.420640676161;2.31903076171875E-05;-0.704345703125;464;10 µA
-0.703277587890625;920.634263675622;2.34405517578125E-05;-0.702667236328125;465;10 µA
-0.70220947265625;920.847886675083;2.32757568359375E-05;-0.701812744140625;466;10 µA
-0.701141357421875;921.061509674543;2.38311767578125E-05;-0.700775146484375;467;10 µA
-0.7000732421875;921.275132674004;2.42279052734375E-05;-0.70037841796875;468;10 µA
-0.699005126953125;921.488755673465;2.35076904296875E-05;-0.699127197265625;469;10 µA
-0.69793701171875;921.702378672925;2.39410400390625E-05;-0.697418212890625;470;10 µA
-0.696868896484375;921.916001672386;2.51861572265625E-05;-0.697296142578125;471;10 µA
-0.69580078125;922.129624671847;2.4273681640625E-05;-0.695648193359375;472;10 µA
-0.694732666015625;922.343247671307;2.452392578125E-05;-0.694732666015625;473;10 µA
-0.69366455078125;922.556870670768;2.57598876953125E-05;-0.693939208984375;474;10 µA
-0.692596435546875;922.770493670228;2.5555419921875E-05;-0.69219970703125;475;10 µA
-0.6915283203125;922.984116669689;2.53387451171875E-05;-0.691558837890625;476;10 µA
-0.690460205078125;923.19773966915;2.58697509765625E-05;-0.689605712890625;477;10 µA
-0.68939208984375;923.41136266861;2.625732421875E-05;-0.68975830078125;478;10 µA
-0.688323974609375;923.624985668071;2.57965087890625E-05;-0.68682861328125;479;10 µA
-0.687255859375;923.838608667532;2.681884765625E-05;-0.68695068359375;480;10 µA
-0.686187744140625;924.052231666992;2.6995849609375E-05;-0.686004638671875;481;10 µA
-0.68511962890625;924.265854666453;2.6025390625E-05;-0.6849365234375;482;10 µA
-0.684051513671875;924.479477665914;2.72186279296875E-05;-0.682861328125;483;10 µA
-0.6829833984375;924.693100665374;2.821044921875E-05;-0.682769775390625;484;10 µA
-0.681915283203125;924.906723664835;2.767333984375E-05;-0.6817626953125;485;10 µA
-0.68084716796875;925.120346664296;2.89215087890625E-05;-0.6812744140625;486;10 µA
-0.679779052734375;925.333969663756;2.92938232421875E-05;-0.679595947265625;487;10 µA
-0.6787109375;925.547592663217;2.906494140625E-05;-0.6787109375;488;10 µA
-0.677642822265625;925.761215662678;2.97882080078125E-05;-0.67889404296875;489;10 µA
-0.67657470703125;925.974838662138;3.05389404296875E-05;-0.6768798828125;490;10 µA
-0.675506591796875;926.188461661599;3.01666259765625E-05;-0.67510986328125;491;10 µA
-0.6744384765625;926.40208466106;3.0572509765625E-05;-0.67449951171875;492;10 µA
-0.673370361328125;926.61570766052;3.1671142578125E-05;-0.673431396484375;493;10 µA
-0.67230224609375;926.829330659981;3.148193359375E-05;-0.671844482421875;494;10 µA
-0.671234130859375;927.042953659442;3.18939208984375E-05;-0.6702880859375;495;10 µA
-0.670166015625;927.256576658902;3.23638916015625E-05;-0.6700439453125;496;10 µA
-0.669097900390625;927.470199658363;3.2427978515625E-05;-0.669158935546875;497;10 µA
-0.66802978515625;927.683822657824;3.26507568359375E-05;-0.66717529296875;498;10 µA
-0.666961669921875;927.897445657284;3.33587646484375E-05;-0.6661376953125;499;10 µA
-0.6658935546875;928.111068656745;3.34808349609375E-05;-0.665252685546875;500;10 µA
-0.664825439453125;928.324691656205;3.36700439453125E-05;-0.664886474609375;501;10 µA
-0.66375732421875;928.538314655666;3.507080078125E-05;-0.663299560546875;502;10 µA
-0.662689208984375;928.751937655127;3.52569580078125E-05;-0.663665771484375;503;10 µA
-0.66162109375;928.965560654587;3.46466064453125E-05;-0.66278076171875;504;10 µA
-0.660552978515625;929.179183654048;3.65509033203125E-05;-0.66064453125;505;10 µA
-0.65948486328125;929.392806653509;3.64471435546875E-05;-0.659027099609375;506;10 µA
-0.658416748046875;929.606429652969;3.61785888671875E-05;-0.65802001953125;507;10 µA
-0.6573486328125;929.82005265243;3.76922607421875E-05;-0.656951904296875;508;10 µA
-0.656280517578125;930.033675651891;3.839111328125E-05;-0.655975341796875;509;10 µA
-0.65521240234375;930.247298651351;3.81866455078125E-05;-0.655303955078125;510;10 µA
-0.654144287109375;930.460921650812;3.95782470703125E-05;-0.653656005859375;511;10 µA
-0.653076171875;930.674544650273;4.0484619140625E-05;-0.652923583984375;512;10 µA
-0.652008056640625;930.888167649733;4.0069580078125E-05;-0.6513671875;513;100 µA
-0.65093994140625;931.101790649194;4.1290283203125E-05;-0.651214599609375;514;100 µA
-0.649871826171875;931.315413648655;4.254150390625E-05;-0.65020751953125;515;100 µA
-0.6488037109375;931.529036648115;4.278564453125E-05;-0.648651123046875;516;100 µA
-0.647735595703125;931.742659647576;4.376220703125E-05;-0.646331787109375;517;100 µA
-0.64666748046875;931.956282647037;4.541015625E-05;-0.64630126953125;518;100 µA
-0.645599365234375;932.169905646497;4.571533203125E-05;-0.6446533203125;519;100 µA
-0.64453125;932.383528645958;4.6630859375E-05;-0.644012451171875;520;100 µA
-0.643463134765625;932.597151645419;4.8614501953125E-05;-0.644683837890625;521;100 µA
-0.64239501953125;932.810774644879;4.9285888671875E-05;-0.642242431640625;522;100 µA
-0.641326904296875;933.02439764434;5.0323486328125E-05;-0.640838623046875;523;100 µA
-0.6402587890625;933.238020643801;5.206298828125E-05;-0.640167236328125;524;100 µA
-0.639190673828125;933.451643643261;5.2978515625E-05;-0.63909912109375;525;100 µA
-0.63812255859375;933.665266642722;5.3802490234375E-05;-0.637908935546875;526;100 µA
-0.637054443359375;933.878889642182;5.5908203125E-05;-0.6363525390625;527;100 µA
-0.635986328125;934.092512641643;5.694580078125E-05;-0.635955810546875;528;100 µA
-0.634918212890625;934.306135641104;5.7769775390625E-05;-0.63568115234375;529;100 µA
-0.63385009765625;934.519758640564;6.036376953125E-05;-0.633270263671875;530;100 µA
-0.632781982421875;934.733381640025;6.170654296875E-05;-0.632904052734375;531;100 µA
-0.6317138671875;934.947004639486;6.2835693359375E-05;-0.631927490234375;532;100 µA
-0.630645751953125;935.160627638946;6.512451171875E-05;-0.631317138671875;533;100 µA
-0.62957763671875;935.374250638407;6.6925048828125E-05;-0.629547119140625;534;100 µA
-0.628509521484375;935.587873637868;6.8511962890625E-05;-0.627716064453125;535;100 µA
-0.62744140625;935.801496637328;7.0709228515625E-05;-0.62786865234375;536;100 µA
-0.626373291015625;936.015119636789;7.3211669921875E-05;-0.627044677734375;537;100 µA
-0.62530517578125;936.22874263625;7.3974609375E-05;-0.625152587890625;538;100 µA
-0.624237060546875;936.44236563571;7.6446533203125E-05;-0.623260498046875;539;100 µA
-0.6231689453125;936.655988635171;7.89794921875E-05;-0.622955322265625;540;100 µA
-0.622100830078125;936.869611634632;8.026123046875E-05;-0.62225341796875;541;100 µA
-0.62103271484375;937.083234634092;8.270263671875E-05;-0.62078857421875;542;100 µA
-0.619964599609375;937.296857633553;8.5662841796875E-05;-0.61993408203125;543;100 µA
-0.618896484375;937.510480633014;8.7127685546875E-05;-0.61962890625;544;100 µA
-0.617828369140625;937.724103632474;8.984375E-05;-0.616973876953125;545;100 µA
-0.61676025390625;937.937726631935;9.3231201171875E-05;-0.616973876953125;546;100 µA
-0.615692138671875;938.151349631396;9.539794921875E-05;-0.61572265625;547;100 µA
-0.6146240234375;938.364972630856;9.8114013671875E-05;-0.614654541015625;548;100 µA
-0.613555908203125;938.578595630317;0.000102081298828125;-0.61407470703125;549;100 µA
-0.61248779296875;938.792218629777;0.00010455322265625;-0.612335205078125;550;100 µA
-0.611419677734375;939.005841629238;0.000107330322265625;-0.61151123046875;551;100 µA
-0.6103515625;939.219464628699;0.0001114501953125;-0.610076904296875;552;100 µA
-0.609283447265625;939.433087628159;0.0001148681640625;-0.608734130859375;553;100 µA
-0.60821533203125;939.64671062762;0.000117584228515625;-0.608612060546875;554;100 µA
-0.607147216796875;939.860333627081;0.00012249755859375;-0.6064453125;555;100 µA
-0.6060791015625;940.073956626541;0.00012615966796875;-0.604766845703125;556;100 µA
-0.605010986328125;940.287579626002;0.0001297607421875;-0.605224609375;557;100 µA
-0.60394287109375;940.501202625463;0.000134674072265625;-0.603759765625;558;100 µA
-0.602874755859375;940.714825624923;0.0001392822265625;-0.60333251953125;559;100 µA
-0.601806640625;940.928448624384;0.00014300537109375;-0.601318359375;560;100 µA
-0.600738525390625;941.142071623845;0.00014849853515625;-0.6002197265625;561;100 µA
-0.59967041015625;941.355694623305;0.000153961181640625;-0.5994873046875;562;100 µA
-0.598602294921875;941.569317622766;0.0001583251953125;-0.599029541015625;563;100 µA
-0.5975341796875;941.782940622227;0.0001639404296875;-0.5987548828125;564;100 µA
-0.596466064453125;941.996563621687;0.00017041015625;-0.5966796875;565;100 µA
-0.59539794921875;942.210186621148;0.0001751708984375;-0.5946044921875;566;100 µA
-0.594329833984375;942.423809620609;0.0001815185546875;-0.593048095703125;567;100 µA
-0.59326171875;942.637432620069;0.0001884765625;-0.593505859375;568;100 µA
-0.592193603515625;942.85105561953;0.000194366455078125;-0.591827392578125;569;100 µA
-0.59112548828125;943.064678618991;0.000200927734375;-0.59100341796875;570;100 µA
-0.590057373046875;943.278301618451;0.00020904541015625;-0.58984375;571;100 µA
-0.5889892578125;943.491924617912;0.00021527099609375;-0.5887451171875;572;100 µA
-0.587921142578125;943.705547617373;0.0002227783203125;-0.58782958984375;573;100 µA
-0.58685302734375;943.919170616833;0.000231048583984375;-0.58673095703125;574;100 µA
-0.585784912109375;944.132793616294;0.00023834228515625;-0.585845947265625;575;100 µA
-0.584716796875;944.346416615754;0.00024591064453125;-0.584686279296875;576;100 µA
-0.583648681640625;944.560039615215;0.000255828857421875;-0.58367919921875;577;100 µA
-0.58258056640625;944.773662614676;0.000264373779296875;-0.58251953125;578;100 µA
-0.581512451171875;944.987285614136;0.0002724609375;-0.579864501953125;579;100 µA
-0.5804443359375;945.200908613597;0.000282470703125;-0.580535888671875;580;100 µA
-0.579376220703125;945.414531613058;0.00029229736328125;-0.5792236328125;581;100 µA
-0.57830810546875;945.628154612518;0.000300933837890625;-0.577911376953125;582;100 µA
-0.577239990234375;945.841777611979;0.0003116455078125;-0.57745361328125;583;100 µA
-0.576171875;946.05540061144;0.000321380615234375;-0.5760498046875;584;100 µA
-0.575103759765625;946.2690236109;0.000331695556640625;-0.575164794921875;585;100 µA
-0.57403564453125;946.482646610361;0.00034283447265625;-0.57421875;586;100 µA
-0.572967529296875;946.696269609822;0.000354583740234375;-0.571807861328125;587;100 µA
-0.5718994140625;946.909892609282;0.00036456298828125;-0.571563720703125;588;100 µA
-0.570831298828125;947.123515608743;0.00037628173828125;-0.570068359375;589;100 µA
-0.56976318359375;947.337138608204;0.000388702392578125;-0.57012939453125;590;100 µA
-0.568695068359375;947.550761607664;0.000399444580078125;-0.56817626953125;591;100 µA
-0.567626953125;947.764384607125;0.000411346435546875;-0.567169189453125;592;100 µA
-0.566558837890625;947.978007606586;0.00042425537109375;-0.566925048828125;593;1 mA
-0.56549072265625;948.191630606046;0.000437255859375;-0.564910888671875;594;1 mA
-0.564422607421875;948.405253605507;0.000450469970703125;-0.564300537109375;595;1 mA
-0.5633544921875;948.618876604968;0.00046417236328125;-0.562957763671875;596;1 mA
-0.562286376953125;948.832499604428;0.00047698974609375;-0.561279296875;597;1 mA
-0.56121826171875;949.046122603889;0.00049102783203125;-0.5614013671875;598;1 mA
-0.560150146484375;949.25974560335;0.00050628662109375;-0.5596923828125;599;1 mA
-0.55908203125;949.47336860281;0.0005194091796875;-0.558563232421875;600;1 mA
-0.558013916015625;949.686991602271;0.00053375244140625;-0.55804443359375;601;1 mA
-0.55694580078125;949.900614601731;0.00054931640625;-0.556671142578125;602;1 mA
-0.555877685546875;950.114237601192;0.00056488037109375;-0.55560302734375;603;1 mA
-0.5548095703125;950.327860600653;0.0005792236328125;-0.554290771484375;604;1 mA
-0.553741455078125;950.541483600113;0.00059600830078125;-0.552490234375;605;1 mA
-0.55267333984375;950.755106599574;0.000611572265625;-0.55224609375;606;1 mA
-0.551605224609375;950.968729599035;0.0006268310546875;-0.5513916015625;607;1 mA
-0.550537109375;951.182352598495;0.00064361572265625;-0.54864501953125;608;1 mA
-0.549468994140625;951.395975597956;0.00066070556640625;-0.549560546875;609;1 mA
-0.54840087890625;951.609598597417;0.00067657470703125;-0.54791259765625;610;1 mA
-0.547332763671875;951.823221596877;0.0006939697265625;-0.5478515625;611;1 mA
-0.5462646484375;952.036844596338;0.000711669921875;-0.545867919921875;612;1 mA
-0.545196533203125;952.250467595799;0.00072906494140625;-0.54443359375;613;1 mA
-0.54412841796875;952.464090595259;0.0007470703125;-0.543731689453125;614;1 mA
-0.543060302734375;952.67771359472;0.0007666015625;-0.542816162109375;615;1 mA
-0.5419921875;952.891336594181;0.00078338623046875;-0.542144775390625;616;1 mA
-0.540924072265625;953.104959593641;0.00080352783203125;-0.5399169921875;617;1 mA
-0.53985595703125;953.318582593102;0.0008233642578125;-0.538970947265625;618;1 mA
-0.538787841796875;953.532205592563;0.00084228515625;-0.538970947265625;619;1 mA
-0.5377197265625;953.745828592023;0.0008612060546875;-0.537811279296875;620;1 mA
-0.536651611328125;953.959451591484;0.00088287353515625;-0.536773681640625;621;1 mA
-0.53558349609375;954.173074590945;0.0009027099609375;-0.535675048828125;622;1 mA
-0.534515380859375;954.386697590405;0.00092254638671875;-0.535247802734375;623;1 mA
-0.533447265625;954.600320589866;0.00094390869140625;-0.53338623046875;624;1 mA
-0.532379150390625;954.813943589327;0.0009649658203125;-0.532257080078125;625;1 mA
-0.53131103515625;955.027566588787;0.00098602294921875;-0.531494140625;626;1 mA
-0.530242919921875;955.241189588248;0.0010089111328125;-0.530670166015625;627;1 mA
-0.5291748046875;955.454812587708;0.00102996826171875;-0.529998779296875;628;1 mA
-0.528106689453125;955.668435587169;0.0010516357421875;-0.528350830078125;629;1 mA
-0.52703857421875;955.88205858663;0.001075439453125;-0.52655029296875;630;1 mA
-0.525970458984375;956.09568158609;0.00109893798828125;-0.524810791015625;631;1 mA
-0.52490234375;956.309304585551;0.0011199951171875;-0.52484130859375;632;1 mA
-0.523834228515625;956.522927585012;0.00114501953125;-0.5235595703125;633;1 mA
-0.52276611328125;956.736550584472;0.0011688232421875;-0.522705078125;634;1 mA
-0.521697998046875;956.950173583933;0.0011920166015625;-0.52166748046875;635;1 mA
-0.5206298828125;957.163796583394;0.00121551513671875;-0.520263671875;636;1 mA
-0.519561767578125;957.377419582854;0.00124114990234375;-0.519989013671875;637;1 mA
-0.51849365234375;957.591042582315;0.00126434326171875;-0.517730712890625;638;1 mA
-0.517425537109375;957.804665581776;0.00128936767578125;-0.516693115234375;639;1 mA
-0.516357421875;958.018288581236;0.001314697265625;-0.51611328125;640;1 mA
-0.515289306640625;958.231911580697;0.00134002685546875;-0.515228271484375;641;1 mA
-0.51422119140625;958.445534580158;0.00136505126953125;-0.515167236328125;642;1 mA
-0.513153076171875;958.659157579618;0.00139190673828125;-0.51312255859375;643;1 mA
-0.5120849609375;958.872780579079;0.00141693115234375;-0.510986328125;644;1 mA
-0.511016845703125;959.08640357854;0.00144256591796875;-0.5107421875;645;1 mA
-0.50994873046875;959.300026578;0.0014691162109375;-0.510101318359375;646;1 mA
-0.508880615234375;959.513649577461;0.00149505615234375;-0.50726318359375;647;1 mA
-0.5078125;959.727272576922;0.0015191650390625;-0.508026123046875;648;1 mA
-0.506744384765625;959.940895576382;0.00154876708984375;-0.50604248046875;649;1 mA
-0.50567626953125;960.154518575843;0.001575927734375;-0.505035400390625;650;1 mA
-0.504608154296875;960.368141575304;0.00160308837890625;-0.50433349609375;651;1 mA
-0.5035400390625;960.581764574764;0.00163055419921875;-0.503662109375;652;1 mA
-0.502471923828125;960.795387574225;0.0016595458984375;-0.50244140625;653;1 mA
-0.50140380859375;961.009010573685;0.00168609619140625;-0.501434326171875;654;1 mA
-0.500335693359375;961.222633573146;0.00171478271484375;-0.499359130859375;655;1 mA
-0.499267578125;961.436256572607;0.0017431640625;-0.499267578125;656;1 mA
